timestamp_unix,timestamp_polar_ns,sample_index,ecg_uv
1778559733.865532,599616047317513035,0,9
1778559733.873224,599616047325205342,0,-106
1778559733.880916,599616047332897649,0,-237
1778559733.888608,599616047340589956,0,-339
1778559733.896301,599616047348282263,0,-419
1778559733.903993,599616047355974570,0,-480
1778559733.911685,599616047363666877,0,-514
1778559733.919378,599616047371359184,0,-531
1778559733.927070,599616047379051491,0,-540
1778559733.934762,599616047386743798,0,-535
1778559733.942455,599616047394436105,0,-526
1778559733.950147,599616047402128412,0,-523
1778559733.957839,599616047409820719,0,-518
1778559733.965532,599616047417513026,0,-514
1778559733.973224,599616047425205333,0,-509
1778559733.980916,599616047432897640,0,-502
1778559733.988609,599616047440589947,0,-487
1778559733.996301,599616047448282254,0,-475
1778559734.003993,599616047455974561,0,-465
1778559734.011686,599616047463666868,0,-453
1778559734.019378,599616047471359175,0,-446
1778559734.027070,599616047479051482,0,-441
1778559734.034762,599616047486743789,0,-429
1778559734.042455,599616047494436096,0,-414
1778559734.050147,599616047502128403,0,-402
1778559734.057839,599616047509820710,0,-400
1778559734.065532,599616047517513017,0,-400
1778559734.073224,599616047525205324,0,-392
1778559734.080916,599616047532897631,0,-378
1778559734.088609,599616047540589938,0,-373
1778559734.096301,599616047548282245,0,-378
1778559734.103993,599616047555974552,0,-371
1778559734.111686,599616047563666859,0,-368
1778559734.119378,599616047571359166,0,-378
1778559734.127070,599616047579051473,0,-373
1778559734.134763,599616047586743780,0,-368
1778559734.142455,599616047594436087,0,-373
1778559734.150147,599616047602128394,0,-375
1778559734.157839,599616047609820701,0,-373
1778559734.165532,599616047617513008,0,-363
1778559734.173224,599616047625205315,0,-358
1778559734.180916,599616047632897622,0,-366
1778559734.188609,599616047640589929,0,-373
1778559734.196301,599616047648282236,0,-385
1778559734.203993,599616047655974543,0,-392
1778559734.211685,599616047663666850,0,-380
1778559734.219378,599616047671359157,0,-349
1778559734.227070,599616047679051464,0,-317
1778559734.234762,599616047686743771,0,-310
1778559734.242455,599616047694436078,0,-320
1778559734.250147,599616047702128385,0,-322
1778559734.257839,599616047709820692,0,-334
1778559734.265532,599616047717512999,0,-358
1778559734.273224,599616047725205306,0,-366
1778559734.280916,599616047732897613,0,-361
1778559734.288609,599616047740589920,0,-354
1778559734.296301,599616047748282227,0,-346
1778559734.303993,599616047755974534,0,-346
1778559734.311686,599616047763666841,0,-351
1778559734.319378,599616047771359148,0,-327
1778559734.327070,599616047779051455,0,-259
1778559734.334762,599616047786743762,0,-162
1778559734.342455,599616047794436069,0,-67
1778559734.350147,599616047802128376,0,118
1778559734.357839,599616047809820683,0,375
1778559734.365532,599616047817512990,0,7
1778559734.373224,599616047825205297,0,-977
1778559734.380916,599616047832897604,0,-1057
1778559734.388608,599616047840589911,0,-293
1778559734.396301,599616047848282218,0,-198
1778559734.403993,599616047855974525,0,-453
1778559734.411685,599616047863666832,0,-324
1778559734.419378,599616047871359139,0,-252
1778559734.404509,599616047878805178,73,-339
1778559734.412201,599616047886497485,73,-312
1778559734.419894,599616047894189792,73,-266
1778559734.427586,599616047901882099,73,-288
1778559734.435278,599616047909574406,73,-291
1778559734.442971,599616047917266713,73,-271
1778559734.450663,599616047924959020,73,-274
1778559734.458355,599616047932651327,73,-278
1778559734.466048,599616047940343634,73,-257
1778559734.473740,599616047948035941,73,-237
1778559734.481432,599616047955728248,73,-237
1778559734.489125,599616047963420555,73,-235
1778559734.496817,599616047971112862,73,-223
1778559734.504509,599616047978805169,73,-213
1778559734.512201,599616047986497476,73,-201
1778559734.519894,599616047994189783,73,-189
1778559734.527586,599616048001882090,73,-172
1778559734.535278,599616048009574397,73,-155
1778559734.542971,599616048017266704,73,-130
1778559734.550663,599616048024959011,73,-94
1778559734.558355,599616048032651318,73,-55
1778559734.566047,599616048040343625,73,-16
1778559734.573740,599616048048035932,73,26
1778559734.581432,599616048055728239,73,70
1778559734.589124,599616048063420546,73,101
1778559734.596817,599616048071112853,73,123
1778559734.604509,599616048078805160,73,133
1778559734.612201,599616048086497467,73,126
1778559734.619894,599616048094189774,73,92
1778559734.627586,599616048101882081,73,16
1778559734.635278,599616048109574388,73,-97
1778559734.642971,599616048117266695,73,-225
1778559734.650663,599616048124959002,73,-337
1778559734.658355,599616048132651309,73,-424
1778559734.666048,599616048140343616,73,-485
1778559734.673740,599616048148035923,73,-523
1778559734.681432,599616048155728230,73,-543
1778559734.689124,599616048163420537,73,-548
1778559734.696817,599616048171112844,73,-543
1778559734.704509,599616048178805151,73,-538
1778559734.712201,599616048186497458,73,-533
1778559734.719894,599616048194189765,73,-526
1778559734.727586,599616048201882072,73,-514
1778559734.735278,599616048209574379,73,-506
1778559734.742970,599616048217266686,73,-506
1778559734.750663,599616048224958993,73,-497
1778559734.758355,599616048232651300,73,-489
1778559734.766047,599616048240343607,73,-482
1778559734.773740,599616048248035914,73,-468
1778559734.781432,599616048255728221,73,-460
1778559734.789124,599616048263420528,73,-451
1778559734.796817,599616048271112835,73,-438
1778559734.804509,599616048278805142,73,-434
1778559734.812201,599616048286497449,73,-424
1778559734.819894,599616048294189756,73,-409
1778559734.827586,599616048301882063,73,-402
1778559734.835278,599616048309574370,73,-400
1778559734.842971,599616048317266677,73,-388
1778559734.850663,599616048324958984,73,-385
1778559734.858355,599616048332651291,73,-388
1778559734.866047,599616048340343598,73,-385
1778559734.873740,599616048348035905,73,-380
1778559734.881432,599616048355728212,73,-383
1778559734.889124,599616048363420519,73,-380
1778559734.896817,599616048371112826,73,-380
1778559734.904509,599616048378805133,73,-380
1778559734.912201,599616048386497440,73,-380
1778559734.919894,599616048394189747,73,-390
1778559734.927586,599616048401882054,73,-404
1778559734.935278,599616048409574361,73,-404
1778559734.942971,599616048417266668,73,-385
1778559734.950663,599616048424958975,73,-354
1778559734.958355,599616048432651282,73,-337
1778559734.994128,599616048440092234,146,-327
1778559735.001821,599616048447784541,146,-320
1778559735.009513,599616048455476848,146,-332
1778559735.017205,599616048463169155,146,-361
1778559735.024898,599616048470861462,146,-375
1778559735.032590,599616048478553769,146,-366
1778559735.040282,599616048486246076,146,-363
1778559735.047975,599616048493938383,146,-368
1778559735.055667,599616048501630690,146,-366
1778559735.063359,599616048509322997,146,-366
1778559735.071052,599616048517015304,146,-366
1778559735.078744,599616048524707611,146,-327
1778559735.086436,599616048532399918,146,-244
1778559735.094128,599616048540092225,146,-140
1778559735.101821,599616048547784532,146,-29
1778559735.109513,599616048555476839,146,194
1778559735.117205,599616048563169146,146,291
1778559735.124898,599616048570861453,146,-431
1778559735.132590,599616048578553760,146,-1227
1778559735.140282,599616048586246067,146,-766
1778559735.147974,599616048593938374,146,-140
1778559735.155667,599616048601630681,146,-339
1778559735.163359,599616048609322988,146,-446
1778559735.171052,599616048617015295,146,-266
1778559735.178744,599616048624707602,146,-293
1778559735.186436,599616048632399909,146,-356
1778559735.194129,599616048640092216,146,-298
1778559735.201821,599616048647784523,146,-286
1778559735.209513,599616048655476830,146,-307
1778559735.217205,599616048663169137,146,-286
1778559735.224898,599616048670861444,146,-266
1778559735.232590,599616048678553751,146,-271
1778559735.240282,599616048686246058,146,-266
1778559735.247975,599616048693938365,146,-254
1778559735.255667,599616048701630672,146,-249
1778559735.263359,599616048709322979,146,-242
1778559735.271051,599616048717015286,146,-232
1778559735.278744,599616048724707593,146,-220
1778559735.286436,599616048732399900,146,-206
1778559735.294128,599616048740092207,146,-194
1778559735.301821,599616048747784514,146,-177
1778559735.309513,599616048755476821,146,-155
1778559735.317205,599616048763169128,146,-128
1778559735.324898,599616048770861435,146,-104
1778559735.332590,599616048778553742,146,-72
1778559735.340282,599616048786246049,146,-33
1778559735.347975,599616048793938356,146,12
1778559735.355667,599616048801630663,146,55
1778559735.363359,599616048809322970,146,92
1778559735.371052,599616048817015277,146,123
1778559735.378744,599616048824707584,146,145
1778559735.386436,599616048832399891,146,147
1778559735.394128,599616048840092198,146,121
1778559735.401821,599616048847784505,146,58
1778559735.409513,599616048855476812,146,-48
1778559735.417205,599616048863169119,146,-174
1778559735.424898,599616048870861426,146,-295
1778559735.432590,599616048878553733,146,-390
1778559735.440282,599616048886246040,146,-458
1778559735.447975,599616048893938347,146,-502
1778559735.455667,599616048901630654,146,-526
1778559735.463359,599616048909322961,146,-543
1778559735.471051,599616048917015268,146,-545
1778559735.478744,599616048924707575,146,-531
1778559735.486436,599616048932399882,146,-516
1778559735.494128,599616048940092189,146,-514
1778559735.501821,599616048947784496,146,-511
1778559735.509513,599616048955476803,146,-502
1778559735.517205,599616048963169110,146,-489
1778559735.524898,599616048970861417,146,-487
1778559735.532590,599616048978553724,146,-487
1778559735.540282,599616048986246031,146,-477
1778559735.547975,599616048993938338,146,-460
1778559735.529475,599616049001389460,219,-451
1778559735.537167,599616049009081767,219,-446
1778559735.544859,599616049016774074,219,-431
1778559735.552552,599616049024466381,219,-417
1778559735.560244,599616049032158688,219,-412
1778559735.567936,599616049039850995,219,-412
1778559735.575629,599616049047543302,219,-395
1778559735.583321,599616049055235609,219,-383
1778559735.591013,599616049062927916,219,-402
1778559735.598706,599616049070620223,219,-409
1778559735.606398,599616049078312530,219,-395
1778559735.614090,599616049086004837,219,-388
1778559735.621782,599616049093697144,219,-380
1778559735.629475,599616049101389451,219,-392
1778559735.637167,599616049109081758,219,-404
1778559735.644859,599616049116774065,219,-380
1778559735.652552,599616049124466372,219,-361
1778559735.660244,599616049132158679,219,-375
1778559735.667936,599616049139850986,219,-378
1778559735.675629,599616049147543293,219,-371
1778559735.683321,599616049155235600,219,-368
1778559735.691013,599616049162927907,219,-371
1778559735.698705,599616049170620214,219,-368
1778559735.706398,599616049178312521,219,-363
1778559735.714090,599616049186004828,219,-358
1778559735.721782,599616049193697135,219,-358
1778559735.729475,599616049201389442,219,-373
1778559735.737167,599616049209081749,219,-378
1778559735.744859,599616049216774056,219,-366
1778559735.752552,599616049224466363,219,-346
1778559735.760244,599616049232158670,219,-322
1778559735.767936,599616049239850977,219,-307
1778559735.775629,599616049247543284,219,-307
1778559735.783321,599616049255235591,219,-315
1778559735.791013,599616049262927898,219,-327
1778559735.798706,599616049270620205,219,-341
1778559735.806398,599616049278312512,219,-351
1778559735.814090,599616049286004819,219,-354
1778559735.821782,599616049293697126,219,-349
1778559735.829475,599616049301389433,219,-346
1778559735.837167,599616049309081740,219,-351
1778559735.844859,599616049316774047,219,-349
1778559735.852552,599616049324466354,219,-334
1778559735.860244,599616049332158661,219,-286
1778559735.867936,599616049339850968,219,-186
1778559735.875628,599616049347543275,219,-72
1778559735.883321,599616049355235582,219,70
1778559735.891013,599616049362927889,219,317
1778559735.898705,599616049370620196,219,191
1778559735.906398,599616049378312503,219,-737
1778559735.914090,599616049386004810,219,-1200
1778559735.921782,599616049393697117,219,-480
1778559735.929475,599616049401389424,219,-130
1778559735.937167,599616049409081731,219,-426
1778559735.944859,599616049416774038,219,-385
1778559735.952552,599616049424466345,219,-242
1778559735.960244,599616049432158652,219,-322
1778559735.967936,599616049439850959,219,-334
1778559735.975629,599616049447543266,219,-274
1778559735.983321,599616049455235573,219,-291
1778559735.991013,599616049462927880,219,-307
1778559735.998705,599616049470620187,219,-278
1778559736.006398,599616049478312494,219,-274
1778559736.014090,599616049486004801,219,-276
1778559736.021782,599616049493697108,219,-259
1778559736.029475,599616049501389415,219,-257
1778559736.037167,599616049509081722,219,-257
1778559736.044859,599616049516774029,219,-235
1778559736.052552,599616049524466336,219,-220
1778559736.060244,599616049532158643,219,-227
1778559736.067936,599616049539850950,219,-215
1778559736.075629,599616049547543257,219,-191
1778559736.083321,599616049555235564,219,-179
1778559736.069700,599616049562671429,292,-164
1778559736.077392,599616049570363736,292,-143
1778559736.085084,599616049578056043,292,-109
1778559736.092777,599616049585748350,292,-70
1778559736.100469,599616049593440657,292,-31
1778559736.108161,599616049601132964,292,2
1778559736.115854,599616049608825271,292,48
1778559736.123546,599616049616517578,292,87
1778559736.131238,599616049624209885,292,109
1778559736.138931,599616049631902192,292,116
1778559736.146623,599616049639594499,292,113
1778559736.154315,599616049647286806,292,80
1778559736.162007,599616049654979113,292,2
1778559736.169700,599616049662671420,292,-111
1778559736.177392,599616049670363727,292,-232
1778559736.185084,599616049678056034,292,-344
1778559736.192777,599616049685748341,292,-431
1778559736.200469,599616049693440648,292,-492
1778559736.208161,599616049701132955,292,-526
1778559736.215854,599616049708825262,292,-540
1778559736.223546,599616049716517569,292,-545
1778559736.231238,599616049724209876,292,-543
1778559736.238930,599616049731902183,292,-538
1778559736.246623,599616049739594490,292,-531
1778559736.254315,599616049747286797,292,-523
1778559736.262007,599616049754979104,292,-514
1778559736.269700,599616049762671411,292,-506
1778559736.277392,599616049770363718,292,-504
1778559736.285084,599616049778056025,292,-499
1778559736.292777,599616049785748332,292,-485
1778559736.300469,599616049793440639,292,-472
1778559736.308161,599616049801132946,292,-468
1778559736.315854,599616049808825253,292,-463
1778559736.323546,599616049816517560,292,-448
1778559736.331238,599616049824209867,292,-436
1778559736.338931,599616049831902174,292,-429
1778559736.346623,599616049839594481,292,-421
1778559736.354315,599616049847286788,292,-409
1778559736.362007,599616049854979095,292,-395
1778559736.369700,599616049862671402,292,-385
1778559736.377392,599616049870363709,292,-383
1778559736.385084,599616049878056016,292,-380
1778559736.392777,599616049885748323,292,-375
1778559736.400469,599616049893440630,292,-373
1778559736.408161,599616049901132937,292,-371
1778559736.415854,599616049908825244,292,-366
1778559736.423546,599616049916517551,292,-366
1778559736.431238,599616049924209858,292,-371
1778559736.438931,599616049931902165,292,-371
1778559736.446623,599616049939594472,292,-366
1778559736.454315,599616049947286779,292,-363
1778559736.462008,599616049954979086,292,-363
1778559736.469700,599616049962671393,292,-361
1778559736.477392,599616049970363700,292,-356
1778559736.485084,599616049978056007,292,-354
1778559736.492777,599616049985748314,292,-358
1778559736.500469,599616049993440621,292,-356
1778559736.508161,599616050001132928,292,-351
1778559736.515854,599616050008825235,292,-351
1778559736.523546,599616050016517542,292,-354
1778559736.531238,599616050024209849,292,-351
1778559736.538930,599616050031902156,292,-346
1778559736.546623,599616050039594463,292,-346
1778559736.554315,599616050047286770,292,-344
1778559736.562007,599616050054979077,292,-344
1778559736.569700,599616050062671384,292,-341
1778559736.577392,599616050070363691,292,-337
1778559736.585084,599616050078055998,292,-341
1778559736.592777,599616050085748305,292,-344
1778559736.600469,599616050093440612,292,-339
1778559736.608161,599616050101132919,292,-341
1778559736.615854,599616050108825226,292,-341
1778559736.623546,599616050116517533,292,-332
1778559736.655699,599616050123983920,365,-332
1778559736.663391,599616050131676227,365,-341
1778559736.671084,599616050139368534,365,-351
1778559736.678776,599616050147060841,365,-351
1778559736.686468,599616050154753148,365,-339
1778559736.694160,599616050162445455,365,-317
1778559736.701853,599616050170137762,365,-295
1778559736.709545,599616050177830069,365,-293
1778559736.717237,599616050185522376,365,-291
1778559736.724930,599616050193214683,365,-286
1778559736.732622,599616050200906990,365,-307
1778559736.740314,599616050208599297,365,-337
1778559736.748007,599616050216291604,365,-337
1778559736.755699,599616050223983911,365,-324
1778559736.763391,599616050231676218,365,-324
1778559736.771084,599616050239368525,365,-329
1778559736.778776,599616050247060832,365,-324
1778559736.786468,599616050254753139,365,-315
1778559736.794161,599616050262445446,365,-281
1778559736.801853,599616050270137753,365,-194
1778559736.809545,599616050277830060,365,-97
1778559736.817237,599616050285522367,365,-14
1778559736.824930,599616050293214674,365,196
1778559736.832622,599616050300906981,365,310
1778559736.840314,599616050308599288,365,-344
1778559736.848007,599616050316291595,365,-1059
1778559736.855699,599616050323983902,365,-647
1778559736.863391,599616050331676209,365,-128
1778559736.871083,599616050339368516,365,-327
1778559736.878776,599616050347060823,365,-412
1778559736.886468,599616050354753130,365,-257
1778559736.894161,599616050362445437,365,-288
1778559736.901853,599616050370137744,365,-339
1778559736.909545,599616050377830051,365,-281
1778559736.917238,599616050385522358,365,-266
1778559736.924930,599616050393214665,365,-291
1778559736.932622,599616050400906972,365,-276
1778559736.940314,599616050408599279,365,-261
1778559736.948007,599616050416291586,365,-266
1778559736.955699,599616050423983893,365,-259
1778559736.963391,599616050431676200,365,-244
1778559736.971084,599616050439368507,365,-247
1778559736.978776,599616050447060814,365,-240
1778559736.986468,599616050454753121,365,-223
1778559736.994160,599616050462445428,365,-215
1778559737.001853,599616050470137735,365,-213
1778559737.009545,599616050477830042,365,-201
1778559737.017237,599616050485522349,365,-184
1778559737.024930,599616050493214656,365,-169
1778559737.032622,599616050500906963,365,-145
1778559737.040314,599616050508599270,365,-121
1778559737.048007,599616050516291577,365,-97
1778559737.055699,599616050523983884,365,-65
1778559737.063391,599616050531676191,365,-26
1778559737.071084,599616050539368498,365,12
1778559737.078776,599616050547060805,365,50
1778559737.086468,599616050554753112,365,89
1778559737.094161,599616050562445419,365,111
1778559737.101853,599616050570137726,365,116
1778559737.109545,599616050577830033,365,101
1778559737.117237,599616050585522340,365,53
1778559737.124930,599616050593214647,365,-31
1778559737.132622,599616050600906954,365,-135
1778559737.140314,599616050608599261,365,-244
1778559737.148007,599616050616291568,365,-349
1778559737.155699,599616050623983875,365,-421
1778559737.163391,599616050631676182,365,-465
1778559737.171084,599616050639368489,365,-499
1778559737.178776,599616050647060796,365,-518
1778559737.186468,599616050654753103,365,-518
1778559737.194160,599616050662445410,365,-511
1778559737.201853,599616050670137717,365,-506
1778559737.209545,599616050677830024,365,-494
1778559737.239815,599616050685270976,438,-487
1778559737.247507,599616050692963283,438,-482
1778559737.255199,599616050700655590,438,-472
1778559737.262891,599616050708347897,438,-463
1778559737.270584,599616050716040204,438,-458
1778559737.278276,599616050723732511,438,-453
1778559737.285968,599616050731424818,438,-448
1778559737.293661,599616050739117125,438,-446
1778559737.301353,599616050746809432,438,-441
1778559737.309045,599616050754501739,438,-436
1778559737.316738,599616050762194046,438,-434
1778559737.324430,599616050769886353,438,-426
1778559737.332122,599616050777578660,438,-419
1778559737.339814,599616050785270967,438,-419
1778559737.347507,599616050792963274,438,-414
1778559737.355199,599616050800655581,438,-404
1778559737.362891,599616050808347888,438,-397
1778559737.370584,599616050816040195,438,-390
1778559737.378276,599616050823732502,438,-375
1778559737.385968,599616050831424809,438,-371
1778559737.393661,599616050839117116,438,-373
1778559737.401353,599616050846809423,438,-368
1778559737.409045,599616050854501730,438,-361
1778559737.416738,599616050862194037,438,-358
1778559737.424430,599616050869886344,438,-358
1778559737.432122,599616050877578651,438,-358
1778559737.439815,599616050885270958,438,-358
1778559737.447507,599616050892963265,438,-354
1778559737.455199,599616050900655572,438,-346
1778559737.462891,599616050908347879,438,-346
1778559737.470584,599616050916040186,438,-349
1778559737.478276,599616050923732493,438,-344
1778559737.485968,599616050931424800,438,-341
1778559737.493661,599616050939117107,438,-344
1778559737.501353,599616050946809414,438,-346
1778559737.509045,599616050954501721,438,-339
1778559737.516737,599616050962194028,438,-334
1778559737.524430,599616050969886335,438,-332
1778559737.532122,599616050977578642,438,-332
1778559737.539814,599616050985270949,438,-334
1778559737.547507,599616050992963256,438,-332
1778559737.555199,599616051000655563,438,-329
1778559737.562891,599616051008347870,438,-327
1778559737.570584,599616051016040177,438,-329
1778559737.578276,599616051023732484,438,-329
1778559737.585968,599616051031424791,438,-327
1778559737.593661,599616051039117098,438,-324
1778559737.601353,599616051046809405,438,-322
1778559737.609045,599616051054501712,438,-322
1778559737.616738,599616051062194019,438,-322
1778559737.624430,599616051069886326,438,-320
1778559737.632122,599616051077578633,438,-320
1778559737.639814,599616051085270940,438,-320
1778559737.647507,599616051092963247,438,-322
1778559737.655199,599616051100655554,438,-322
1778559737.662891,599616051108347861,438,-322
1778559737.670584,599616051116040168,438,-322
1778559737.678276,599616051123732475,438,-320
1778559737.685968,599616051131424782,438,-312
1778559737.693661,599616051139117089,438,-315
1778559737.701353,599616051146809396,438,-317
1778559737.709045,599616051154501703,438,-312
1778559737.716738,599616051162194010,438,-307
1778559737.724430,599616051169886317,438,-312
1778559737.732122,599616051177578624,438,-312
1778559737.739815,599616051185270931,438,-310
1778559737.747507,599616051192963238,438,-315
1778559737.755199,599616051200655545,438,-312
1778559737.762891,599616051208347852,438,-303
1778559737.770584,599616051216040159,438,-303
1778559737.778276,599616051223732466,438,-307
1778559737.785968,599616051231424773,438,-305
1778559737.793661,599616051239117080,438,-307
1778559737.779778,599616051246558032,511,-305
1778559737.787471,599616051254250339,511,-305
1778559737.795163,599616051261942646,511,-310
1778559737.802855,599616051269634953,511,-305
1778559737.810548,599616051277327260,511,-300
1778559737.818240,599616051285019567,511,-298
1778559737.825932,599616051292711874,511,-300
1778559737.833625,599616051300404181,511,-305
1778559737.841317,599616051308096488,511,-307
1778559737.849009,599616051315788795,511,-300
1778559737.856702,599616051323481102,511,-295
1778559737.864394,599616051331173409,511,-303
1778559737.872086,599616051338865716,511,-310
1778559737.879778,599616051346558023,511,-303
1778559737.887471,599616051354250330,511,-298
1778559737.895163,599616051361942637,511,-300
1778559737.902855,599616051369634944,511,-300
1778559737.910548,599616051377327251,511,-298
1778559737.918240,599616051385019558,511,-300
1778559737.925932,599616051392711865,511,-303
1778559737.933625,599616051400404172,511,-300
1778559737.941317,599616051408096479,511,-300
1778559737.949009,599616051415788786,511,-300
1778559737.956702,599616051423481093,511,-293
1778559737.964394,599616051431173400,511,-293
1778559737.972086,599616051438865707,511,-300
1778559737.979779,599616051446558014,511,-295
1778559737.987471,599616051454250321,511,-293
1778559737.995163,599616051461942628,511,-298
1778559738.002855,599616051469634935,511,-295
1778559738.010548,599616051477327242,511,-293
1778559738.018240,599616051485019549,511,-293
1778559738.025932,599616051492711856,511,-295
1778559738.033625,599616051500404163,511,-295
1778559738.041317,599616051508096470,511,-293
1778559738.049009,599616051515788777,511,-288
1778559738.056701,599616051523481084,511,-291
1778559738.064394,599616051531173391,511,-298
1778559738.072086,599616051538865698,511,-295
1778559738.079778,599616051546558005,511,-295
1778559738.087471,599616051554250312,511,-288
1778559738.095163,599616051561942619,511,-276
1778559738.102855,599616051569634926,511,-269
1778559738.110548,599616051577327233,511,-271
1778559738.118240,599616051585019540,511,-264
1778559738.125932,599616051592711847,511,-264
1778559738.133625,599616051600404154,511,-274
1778559738.141317,599616051608096461,511,-274
1778559738.149009,599616051615788768,511,-288
1778559738.156702,599616051623481075,511,-315
1778559738.164394,599616051631173382,511,-312
1778559738.172086,599616051638865689,511,-300
1778559738.179778,599616051646557996,511,-303
1778559738.187471,599616051654250303,511,-305
1778559738.195163,599616051661942610,511,-300
1778559738.202855,599616051669634917,511,-281
1778559738.210548,599616051677327224,511,-220
1778559738.218240,599616051685019531,511,-133
1778559738.225932,599616051692711838,511,-58
1778559738.233625,599616051700404145,511,169
1778559738.241317,599616051708096452,511,526
1778559738.249009,599616051715788759,511,203
1778559738.256701,599616051723481066,511,-746
1778559738.264394,599616051731173373,511,-851
1778559738.272086,599616051738865680,511,-230
1778559738.279778,599616051746557987,511,-215
1778559738.287471,599616051754250294,511,-443
1778559738.295163,599616051761942601,511,-324
1778559738.302855,599616051769634908,511,-266
1778559738.310548,599616051777327215,511,-346
1778559738.318240,599616051785019522,511,-320
1778559738.325932,599616051792711829,511,-276
1778559738.333625,599616051800404136,511,-293
1778559738.319344,599616051807860345,584,-293
1778559738.327036,599616051815552652,584,-271
1778559738.334728,599616051823244959,584,-269
1778559738.342421,599616051830937266,584,-269
1778559738.350113,599616051838629573,584,-257
1778559738.357805,599616051846321880,584,-247
1778559738.365498,599616051854014187,584,-249
1778559738.373190,599616051861706494,584,-244
1778559738.380882,599616051869398801,584,-230
1778559738.388575,599616051877091108,584,-223
1778559738.396267,599616051884783415,584,-218
1778559738.403959,599616051892475722,584,-201
1778559738.411651,599616051900168029,584,-189
1778559738.419344,599616051907860336,584,-177
1778559738.427036,599616051915552643,584,-160
1778559738.434728,599616051923244950,584,-140
1778559738.442421,599616051930937257,584,-111
1778559738.450113,599616051938629564,584,-75
1778559738.457805,599616051946321871,584,-43
1778559738.465498,599616051954014178,584,-7
1778559738.473190,599616051961706485,584,31
1778559738.480882,599616051969398792,584,58
1778559738.488575,599616051977091099,584,77
1778559738.496267,599616051984783406,584,89
1778559738.503959,599616051992475713,584,82
1778559738.511652,599616052000168020,584,46
1778559738.519344,599616052007860327,584,-16
1778559738.527036,599616052015552634,584,-104
1778559738.534728,599616052023244941,584,-203
1778559738.542421,599616052030937248,584,-295
1778559738.550113,599616052038629555,584,-373
1778559738.557805,599616052046321862,584,-429
1778559738.565498,599616052054014169,584,-465
1778559738.573190,599616052061706476,584,-485
1778559738.580882,599616052069398783,584,-487
1778559738.588575,599616052077091090,584,-487
1778559738.596267,599616052084783397,584,-485
1778559738.603959,599616052092475704,584,-482
1778559738.611651,599616052100168011,584,-475
1778559738.619344,599616052107860318,584,-463
1778559738.627036,599616052115552625,584,-451
1778559738.634728,599616052123244932,584,-441
1778559738.642421,599616052130937239,584,-438
1778559738.650113,599616052138629546,584,-436
1778559738.657805,599616052146321853,584,-431
1778559738.665498,599616052154014160,584,-429
1778559738.673190,599616052161706467,584,-421
1778559738.680882,599616052169398774,584,-409
1778559738.688575,599616052177091081,584,-409
1778559738.696267,599616052184783388,584,-404
1778559738.703959,599616052192475695,584,-395
1778559738.711652,599616052200168002,584,-395
1778559738.719344,599616052207860309,584,-395
1778559738.727036,599616052215552616,584,-390
1778559738.734728,599616052223244923,584,-383
1778559738.742421,599616052230937230,584,-378
1778559738.750113,599616052238629537,584,-373
1778559738.757805,599616052246321844,584,-366
1778559738.765498,599616052254014151,584,-363
1778559738.773190,599616052261706458,584,-356
1778559738.780882,599616052269398765,584,-349
1778559738.788574,599616052277091072,584,-349
1778559738.796267,599616052284783379,584,-349
1778559738.803959,599616052292475686,584,-344
1778559738.811651,599616052300167993,584,-344
1778559738.819344,599616052307860300,584,-341
1778559738.827036,599616052315552607,584,-337
1778559738.834728,599616052323244914,584,-337
1778559738.842421,599616052330937221,584,-339
1778559738.850113,599616052338629528,584,-339
1778559738.857805,599616052346321835,584,-337
1778559738.865498,599616052354014142,584,-334
1778559738.873190,599616052361706449,584,-327
1778559738.903993,599616052369162662,657,-329
1778559738.911685,599616052376854969,657,-337
1778559738.919377,599616052384547276,657,-332
1778559738.927069,599616052392239583,657,-322
1778559738.934762,599616052399931890,657,-324
1778559738.942454,599616052407624197,657,-329
1778559738.950146,599616052415316504,657,-332
1778559738.957839,599616052423008811,657,-332
1778559738.965531,599616052430701118,657,-324
1778559738.973223,599616052438393425,657,-324
1778559738.980916,599616052446085732,657,-324
1778559738.988608,599616052453778039,657,-324
1778559738.996300,599616052461470346,657,-322
1778559739.003993,599616052469162653,657,-322
1778559739.011685,599616052476854960,657,-322
1778559739.019377,599616052484547267,657,-320
1778559739.027070,599616052492239574,657,-317
1778559739.034762,599616052499931881,657,-320
1778559739.042454,599616052507624188,657,-320
1778559739.050147,599616052515316495,657,-315
1778559739.057839,599616052523008802,657,-315
1778559739.065531,599616052530701109,657,-315
1778559739.073223,599616052538393416,657,-307
1778559739.080916,599616052546085723,657,-307
1778559739.088608,599616052553778030,657,-317
1778559739.096300,599616052561470337,657,-315
1778559739.103993,599616052569162644,657,-312
1778559739.111685,599616052576854951,657,-312
1778559739.119377,599616052584547258,657,-310
1778559739.127069,599616052592239565,657,-315
1778559739.134762,599616052599931872,657,-317
1778559739.142454,599616052607624179,657,-315
1778559739.150146,599616052615316486,657,-307
1778559739.157839,599616052623008793,657,-303
1778559739.165531,599616052630701100,657,-305
1778559739.173223,599616052638393407,657,-312
1778559739.180916,599616052646085714,657,-315
1778559739.188608,599616052653778021,657,-305
1778559739.196300,599616052661470328,657,-303
1778559739.203993,599616052669162635,657,-305
1778559739.211685,599616052676854942,657,-305
1778559739.219377,599616052684547249,657,-305
1778559739.227070,599616052692239556,657,-300
1778559739.234762,599616052699931863,657,-293
1778559739.242454,599616052707624170,657,-298
1778559739.250146,599616052715316477,657,-303
1778559739.257839,599616052723008784,657,-300
1778559739.265531,599616052730701091,657,-298
1778559739.273223,599616052738393398,657,-293
1778559739.280916,599616052746085705,657,-293
1778559739.288608,599616052753778012,657,-293
1778559739.296300,599616052761470319,657,-288
1778559739.303993,599616052769162626,657,-286
1778559739.311685,599616052776854933,657,-283
1778559739.319377,599616052784547240,657,-283
1778559739.327070,599616052792239547,657,-286
1778559739.334762,599616052799931854,657,-286
1778559739.342454,599616052807624161,657,-281
1778559739.350147,599616052815316468,657,-281
1778559739.357839,599616052823008775,657,-281
1778559739.365531,599616052830701082,657,-278
1778559739.373223,599616052838393389,657,-281
1778559739.380916,599616052846085696,657,-281
1778559739.388608,599616052853778003,657,-276
1778559739.396300,599616052861470310,657,-276
1778559739.403993,599616052869162617,657,-278
1778559739.411685,599616052876854924,657,-264
1778559739.419377,599616052884547231,657,-249
1778559739.427069,599616052892239538,657,-252
1778559739.434762,599616052899931845,657,-249
1778559739.442454,599616052907624152,657,-242
1778559739.450146,599616052915316459,657,-242
1778559739.457839,599616052923008766,657,-244
1778559739.445772,599616052930449718,730,-254
1778559739.453465,599616052938142025,730,-278
1778559739.461157,599616052945834332,730,-291
1778559739.468849,599616052953526639,730,-283
1778559739.476541,599616052961218946,730,-278
1778559739.484234,599616052968911253,730,-276
1778559739.491926,599616052976603560,730,-271
1778559739.499618,599616052984295867,730,-259
1778559739.507311,599616052991988174,730,-208
1778559739.515003,599616052999680481,730,-118
1778559739.522695,599616053007372788,730,-31
1778559739.530388,599616053015065095,730,167
1778559739.538080,599616053022757402,730,528
1778559739.545772,599616053030449709,730,324
1778559739.553464,599616053038142016,730,-645
1778559739.561157,599616053045834323,730,-921
1778559739.568849,599616053053526630,730,-271
1778559739.576541,599616053061218937,730,-150
1778559739.584234,599616053068911244,730,-421
1778559739.591926,599616053076603551,730,-322
1778559739.599618,599616053084295858,730,-230
1778559739.607311,599616053091988165,730,-315
1778559739.615003,599616053099680472,730,-307
1778559739.622695,599616053107372779,730,-259
1778559739.630388,599616053115065086,730,-274
1778559739.638080,599616053122757393,730,-276
1778559739.645772,599616053130449700,730,-254
1778559739.653465,599616053138142007,730,-247
1778559739.661157,599616053145834314,730,-244
1778559739.668849,599616053153526621,730,-235
1778559739.676541,599616053161218928,730,-232
1778559739.684234,599616053168911235,730,-227
1778559739.691926,599616053176603542,730,-213
1778559739.699618,599616053184295849,730,-203
1778559739.707311,599616053191988156,730,-196
1778559739.715003,599616053199680463,730,-186
1778559739.722695,599616053207372770,730,-172
1778559739.730387,599616053215065077,730,-155
1778559739.738080,599616053222757384,730,-138
1778559739.745772,599616053230449691,730,-123
1778559739.753464,599616053238141998,730,-106
1778559739.761157,599616053245834305,730,-75
1778559739.768849,599616053253526612,730,-36
1778559739.776541,599616053261218919,730,0
1778559739.784234,599616053268911226,730,33
1778559739.791926,599616053276603533,730,70
1778559739.799618,599616053284295840,730,106
1778559739.807311,599616053291988147,730,130
1778559739.815003,599616053299680454,730,147
1778559739.822695,599616053307372761,730,143
1778559739.830388,599616053315065068,730,111
1778559739.838080,599616053322757375,730,55
1778559739.845772,599616053330449682,730,-31
1778559739.853464,599616053338141989,730,-145
1778559739.861157,599616053345834296,730,-257
1778559739.868849,599616053353526603,730,-337
1778559739.876541,599616053361218910,730,-402
1778559739.884234,599616053368911217,730,-455
1778559739.891926,599616053376603524,730,-485
1778559739.899618,599616053384295831,730,-492
1778559739.907310,599616053391988138,730,-494
1778559739.915003,599616053399680445,730,-489
1778559739.922695,599616053407372752,730,-477
1778559739.930387,599616053415065059,730,-470
1778559739.938080,599616053422757366,730,-468
1778559739.945772,599616053430449673,730,-458
1778559739.953465,599616053438141980,730,-443
1778559739.961157,599616053445834287,730,-438
1778559739.968849,599616053453526594,730,-438
1778559739.976541,599616053461218901,730,-438
1778559739.984234,599616053468911208,730,-426
1778559739.991926,599616053476603515,730,-419
1778559739.999618,599616053484295822,730,-414
1778559739.984955,599616053491736770,803,-407
1778559739.992647,599616053499429077,803,-397
1778559740.000340,599616053507121384,803,-388
1778559740.008032,599616053514813691,803,-390
1778559740.015724,599616053522505998,803,-385
1778559740.023416,599616053530198305,803,-373
1778559740.031109,599616053537890612,803,-366
1778559740.038801,599616053545582919,803,-363
1778559740.046493,599616053553275226,803,-349
1778559740.054186,599616053560967533,803,-341
1778559740.061878,599616053568659840,803,-349
1778559740.069570,599616053576352147,803,-354
1778559740.077262,599616053584044454,803,-344
1778559740.084955,599616053591736761,803,-337
1778559740.092647,599616053599429068,803,-339
1778559740.100339,599616053607121375,803,-344
1778559740.108032,599616053614813682,803,-341
1778559740.115724,599616053622505989,803,-339
1778559740.123416,599616053630198296,803,-344
1778559740.131109,599616053637890603,803,-344
1778559740.138801,599616053645582910,803,-339
1778559740.146493,599616053653275217,803,-337
1778559740.154186,599616053660967524,803,-339
1778559740.161878,599616053668659831,803,-337
1778559740.169570,599616053676352138,803,-329
1778559740.177263,599616053684044445,803,-329
1778559740.184955,599616053691736752,803,-329
1778559740.192647,599616053699429059,803,-332
1778559740.200339,599616053707121366,803,-334
1778559740.208032,599616053714813673,803,-327
1778559740.215724,599616053722505980,803,-322
1778559740.223416,599616053730198287,803,-329
1778559740.231109,599616053737890594,803,-329
1778559740.238801,599616053745582901,803,-322
1778559740.246493,599616053753275208,803,-324
1778559740.254186,599616053760967515,803,-329
1778559740.261878,599616053768659822,803,-327
1778559740.269570,599616053776352129,803,-329
1778559740.277262,599616053784044436,803,-329
1778559740.284955,599616053791736743,803,-322
1778559740.292647,599616053799429050,803,-317
1778559740.300339,599616053807121357,803,-320
1778559740.308032,599616053814813664,803,-324
1778559740.315724,599616053822505971,803,-324
1778559740.323416,599616053830198278,803,-317
1778559740.331109,599616053837890585,803,-320
1778559740.338801,599616053845582892,803,-327
1778559740.346493,599616053853275199,803,-329
1778559740.354186,599616053860967506,803,-324
1778559740.361878,599616053868659813,803,-310
1778559740.369570,599616053876352120,803,-307
1778559740.377263,599616053884044427,803,-320
1778559740.384955,599616053891736734,803,-324
1778559740.392647,599616053899429041,803,-320
1778559740.400339,599616053907121348,803,-315
1778559740.408032,599616053914813655,803,-310
1778559740.415724,599616053922505962,803,-310
1778559740.423416,599616053930198269,803,-310
1778559740.431109,599616053937890576,803,-312
1778559740.438801,599616053945582883,803,-315
1778559740.446493,599616053953275190,803,-315
1778559740.454185,599616053960967497,803,-312
1778559740.461878,599616053968659804,803,-307
1778559740.469570,599616053976352111,803,-312
1778559740.477262,599616053984044418,803,-315
1778559740.484955,599616053991736725,803,-307
1778559740.492647,599616053999429032,803,-307
1778559740.500340,599616054007121339,803,-307
1778559740.508032,599616054014813646,803,-303
1778559740.515724,599616054022505953,803,-303
1778559740.523416,599616054030198260,803,-305
1778559740.531109,599616054037890567,803,-305
1778559740.538801,599616054045582874,803,-312
1778559740.617342,599616054053049261,876,-315
1778559740.625035,599616054060741568,876,-307
1778559740.632727,599616054068433875,876,-300
1778559740.640419,599616054076126182,876,-300
1778559740.648112,599616054083818489,876,-295
1778559740.655804,599616054091510796,876,-283
1778559740.663496,599616054099203103,876,-278
1778559740.671189,599616054106895410,876,-269
1778559740.678881,599616054114587717,876,-247
1778559740.686573,599616054122280024,876,-259
1778559740.694266,599616054129972331,876,-315
1778559740.701958,599616054137664638,876,-351
1778559740.709650,599616054145356945,876,-334
1778559740.717342,599616054153049252,876,-312
1778559740.725035,599616054160741559,876,-315
1778559740.732727,599616054168433866,876,-327
1778559740.740419,599616054176126173,876,-310
1778559740.748112,599616054183818480,876,-276
1778559740.755804,599616054191510787,876,-235
1778559740.763496,599616054199203094,876,-126
1778559740.771188,599616054206895401,876,-12
1778559740.778881,599616054214587708,876,160
1778559740.786573,599616054222280015,876,404
1778559740.794266,599616054229972322,876,48
1778559740.801958,599616054237664629,876,-826
1778559740.809650,599616054245356936,876,-841
1778559740.817343,599616054253049243,876,-210
1778559740.825035,599616054260741550,876,-194
1778559740.832727,599616054268433857,876,-419
1778559740.840419,599616054276126164,876,-320
1778559740.848112,599616054283818471,876,-269
1778559740.855804,599616054291510778,876,-346
1778559740.863496,599616054299203085,876,-322
1778559740.871189,599616054306895392,876,-269
1778559740.878881,599616054314587699,876,-278
1778559740.886573,599616054322280006,876,-281
1778559740.894265,599616054329972313,876,-259
1778559740.901958,599616054337664620,876,-249
1778559740.909650,599616054345356927,876,-249
1778559740.917342,599616054353049234,876,-249
1778559740.925035,599616054360741541,876,-254
1778559740.932727,599616054368433848,876,-247
1778559740.940419,599616054376126155,876,-227
1778559740.948112,599616054383818462,876,-220
1778559740.955804,599616054391510769,876,-206
1778559740.963496,599616054399203076,876,-196
1778559740.971189,599616054406895383,876,-201
1778559740.978881,599616054414587690,876,-179
1778559740.986573,599616054422279997,876,-150
1778559740.994266,599616054429972304,876,-143
1778559741.001958,599616054437664611,876,-133
1778559741.009650,599616054445356918,876,-92
1778559741.017342,599616054453049225,876,-38
1778559741.025035,599616054460741532,876,-12
1778559741.032727,599616054468433839,876,31
1778559741.040419,599616054476126146,876,118
1778559741.048112,599616054483818453,876,152
1778559741.055804,599616054491510760,876,118
1778559741.063496,599616054499203067,876,128
1778559741.071189,599616054506895374,876,133
1778559741.078881,599616054514587681,876,63
1778559741.086573,599616054522279988,876,7
1778559741.094265,599616054529972295,876,-46
1778559741.101958,599616054537664602,876,-172
1778559741.109650,599616054545356909,876,-300
1778559741.117342,599616054553049216,876,-368
1778559741.125035,599616054560741523,876,-412
1778559741.132727,599616054568433830,876,-453
1778559741.140419,599616054576126137,876,-492
1778559741.148112,599616054583818444,876,-518
1778559741.155804,599616054591510751,876,-523
1778559741.163496,599616054599203058,876,-511
1778559741.171189,599616054606895365,876,-497
1778559741.155003,599616054614331230,949,-494
1778559741.162695,599616054622023537,949,-489
1778559741.170387,599616054629715844,949,-477
1778559741.178079,599616054637408151,949,-468
1778559741.185772,599616054645100458,949,-470
1778559741.193464,599616054652792765,949,-465
1778559741.201156,599616054660485072,949,-448
1778559741.208849,599616054668177379,949,-443
1778559741.216541,599616054675869686,949,-443
1778559741.224233,599616054683561993,949,-436
1778559741.231926,599616054691254300,949,-424
1778559741.239618,599616054698946607,949,-412
1778559741.247310,599616054706638914,949,-400
1778559741.255002,599616054714331221,949,-395
1778559741.262695,599616054722023528,949,-388
1778559741.270387,599616054729715835,949,-385
1778559741.278080,599616054737408142,949,-385
1778559741.285772,599616054745100449,949,-380
1778559741.293464,599616054752792756,949,-368
1778559741.301157,599616054760485063,949,-363
1778559741.308849,599616054768177370,949,-358
1778559741.316541,599616054775869677,949,-334
1778559741.324233,599616054783561984,949,-337
1778559741.331926,599616054791254291,949,-368
1778559741.339618,599616054798946598,949,-361
1778559741.347310,599616054806638905,949,-324
1778559741.355003,599616054814331212,949,-327
1778559741.362695,599616054822023519,949,-351
1778559741.370387,599616054829715826,949,-346
1778559741.378079,599616054837408133,949,-334
1778559741.385772,599616054845100440,949,-341
1778559741.393464,599616054852792747,949,-346
1778559741.401156,599616054860485054,949,-332
1778559741.408849,599616054868177361,949,-312
1778559741.416541,599616054875869668,949,-305
1778559741.424233,599616054883561975,949,-324
1778559741.431926,599616054891254282,949,-337
1778559741.439618,599616054898946589,949,-327
1778559741.447310,599616054906638896,949,-329
1778559741.455003,599616054914331203,949,-329
1778559741.462695,599616054922023510,949,-310
1778559741.470387,599616054929715817,949,-303
1778559741.478080,599616054937408124,949,-312
1778559741.485772,599616054945100431,949,-310
1778559741.493464,599616054952792738,949,-303
1778559741.501156,599616054960485045,949,-310
1778559741.508849,599616054968177352,949,-322
1778559741.516541,599616054975869659,949,-320
1778559741.524233,599616054983561966,949,-310
1778559741.531926,599616054991254273,949,-305
1778559741.539618,599616054998946580,949,-307
1778559741.547310,599616055006638887,949,-310
1778559741.555002,599616055014331194,949,-307
1778559741.562695,599616055022023501,949,-315
1778559741.570387,599616055029715808,949,-329
1778559741.578079,599616055037408115,949,-324
1778559741.585772,599616055045100422,949,-312
1778559741.593464,599616055052792729,949,-310
1778559741.601156,599616055060485036,949,-315
1778559741.608849,599616055068177343,949,-315
1778559741.616541,599616055075869650,949,-310
1778559741.624233,599616055083561957,949,-307
1778559741.631926,599616055091254264,949,-310
1778559741.639618,599616055098946571,949,-315
1778559741.647310,599616055106638878,949,-317
1778559741.655003,599616055114331185,949,-317
1778559741.662695,599616055122023492,949,-317
1778559741.670387,599616055129715799,949,-315
1778559741.678079,599616055137408106,949,-315
1778559741.685772,599616055145100413,949,-315
1778559741.693464,599616055152792720,949,-322
1778559741.701156,599616055160485027,949,-327
1778559741.708849,599616055168177334,949,-324
1778559741.694213,599616055175628460,1022,-324
1778559741.701905,599616055183320767,1022,-329
1778559741.709597,599616055191013074,1022,-320
1778559741.717289,599616055198705381,1022,-298
1778559741.724982,599616055206397688,1022,-286
1778559741.732674,599616055214089995,1022,-283
1778559741.740366,599616055221782302,1022,-278
1778559741.748059,599616055229474609,1022,-276
1778559741.755751,599616055237166916,1022,-303
1778559741.763443,599616055244859223,1022,-332
1778559741.771136,599616055252551530,1022,-334
1778559741.778828,599616055260243837,1022,-327
1778559741.786520,599616055267936144,1022,-322
1778559741.794213,599616055275628451,1022,-327
1778559741.801905,599616055283320758,1022,-327
1778559741.809597,599616055291013065,1022,-312
1778559741.817290,599616055298705372,1022,-271
1778559741.824982,599616055306397679,1022,-194
1778559741.832674,599616055314089986,1022,-104
1778559741.840367,599616055321782293,1022,72
1778559741.848059,599616055329474600,1022,455
1778559741.855751,599616055337166907,1022,502
1778559741.863443,599616055344859214,1022,-402
1778559741.871136,599616055352551521,1022,-1052
1778559741.878828,599616055360243828,1022,-502
1778559741.886520,599616055367936135,1022,-147
1778559741.894213,599616055375628442,1022,-429
1778559741.901905,599616055383320749,1022,-419
1778559741.909597,599616055391013056,1022,-276
1778559741.917289,599616055398705363,1022,-344
1778559741.924982,599616055406397670,1022,-366
1778559741.932674,599616055414089977,1022,-300
1778559741.940367,599616055421782284,1022,-303
1778559741.948059,599616055429474591,1022,-315
1778559741.955751,599616055437166898,1022,-286
1778559741.963444,599616055444859205,1022,-274
1778559741.971136,599616055452551512,1022,-286
1778559741.978828,599616055460243819,1022,-295
1778559741.986520,599616055467936126,1022,-286
1778559741.994213,599616055475628433,1022,-264
1778559742.001905,599616055483320740,1022,-254
1778559742.009597,599616055491013047,1022,-249
1778559742.017290,599616055498705354,1022,-235
1778559742.024982,599616055506397661,1022,-213
1778559742.032674,599616055514089968,1022,-191
1778559742.040366,599616055521782275,1022,-189
1778559742.048059,599616055529474582,1022,-191
1778559742.055751,599616055537166889,1022,-169
1778559742.063443,599616055544859196,1022,-133
1778559742.071136,599616055552551503,1022,-111
1778559742.078828,599616055560243810,1022,-92
1778559742.086520,599616055567936117,1022,-53
1778559742.094213,599616055575628424,1022,-9
1778559742.101905,599616055583320731,1022,36
1778559742.109597,599616055591013038,1022,80
1778559742.117290,599616055598705345,1022,99
1778559742.124982,599616055606397652,1022,111
1778559742.132674,599616055614089959,1022,126
1778559742.140367,599616055621782266,1022,104
1778559742.148059,599616055629474573,1022,33
1778559742.155751,599616055637166880,1022,-38
1778559742.163443,599616055644859187,1022,-111
1778559742.171136,599616055652551494,1022,-218
1778559742.178828,599616055660243801,1022,-320
1778559742.186520,599616055667936108,1022,-390
1778559742.194213,599616055675628415,1022,-441
1778559742.201905,599616055683320722,1022,-468
1778559742.209597,599616055691013029,1022,-482
1778559742.217289,599616055698705336,1022,-492
1778559742.224982,599616055706397643,1022,-494
1778559742.232674,599616055714089950,1022,-494
1778559742.240366,599616055721782257,1022,-485
1778559742.248059,599616055729474564,1022,-472
1778559742.279241,599616055736915516,1095,-468
1778559742.286933,599616055744607823,1095,-451
1778559742.294626,599616055752300130,1095,-446
1778559742.302318,599616055759992437,1095,-453
1778559742.310010,599616055767684744,1095,-429
1778559742.317703,599616055775377051,1095,-395
1778559742.325395,599616055783069358,1095,-402
1778559742.333087,599616055790761665,1095,-424
1778559742.340780,599616055798453972,1095,-417
1778559742.348472,599616055806146279,1095,-385
1778559742.356164,599616055813838586,1095,-371
1778559742.363857,599616055821530893,1095,-378
1778559742.371549,599616055829223200,1095,-368
1778559742.379241,599616055836915507,1095,-356
1778559742.386933,599616055844607814,1095,-368
1778559742.394626,599616055852300121,1095,-366
1778559742.402318,599616055859992428,1095,-341
1778559742.410010,599616055867684735,1095,-339
1778559742.417703,599616055875377042,1095,-358
1778559742.425395,599616055883069349,1095,-356
1778559742.433087,599616055890761656,1095,-334
1778559742.440779,599616055898453963,1095,-327
1778559742.448472,599616055906146270,1095,-324
1778559742.456164,599616055913838577,1095,-332
1778559742.463856,599616055921530884,1095,-337
1778559742.471549,599616055929223191,1095,-315
1778559742.479241,599616055936915498,1095,-305
1778559742.486933,599616055944607805,1095,-329
1778559742.494626,599616055952300112,1095,-332
1778559742.502318,599616055959992419,1095,-322
1778559742.510010,599616055967684726,1095,-327
1778559742.517703,599616055975377033,1095,-322
1778559742.525395,599616055983069340,1095,-307
1778559742.533087,599616055990761647,1095,-300
1778559742.540780,599616055998453954,1095,-305
1778559742.548472,599616056006146261,1095,-329
1778559742.556164,599616056013838568,1095,-327
1778559742.563856,599616056021530875,1095,-298
1778559742.571549,599616056029223182,1095,-307
1778559742.579241,599616056036915489,1095,-327
1778559742.586933,599616056044607796,1095,-317
1778559742.594626,599616056052300103,1095,-312
1778559742.602318,599616056059992410,1095,-315
1778559742.610010,599616056067684717,1095,-300
1778559742.617702,599616056075377024,1095,-295
1778559742.625395,599616056083069331,1095,-315
1778559742.633087,599616056090761638,1095,-315
1778559742.640779,599616056098453945,1095,-300
1778559742.648472,599616056106146252,1095,-293
1778559742.656164,599616056113838559,1095,-300
1778559742.663857,599616056121530866,1095,-307
1778559742.671549,599616056129223173,1095,-300
1778559742.679241,599616056136915480,1095,-271
1778559742.686933,599616056144607787,1095,-274
1778559742.694626,599616056152300094,1095,-317
1778559742.702318,599616056159992401,1095,-322
1778559742.710010,599616056167684708,1095,-286
1778559742.717703,599616056175377015,1095,-286
1778559742.725395,599616056183069322,1095,-307
1778559742.733087,599616056190761629,1095,-293
1778559742.740779,599616056198453936,1095,-271
1778559742.748472,599616056206146243,1095,-293
1778559742.756164,599616056213838550,1095,-298
1778559742.763856,599616056221530857,1095,-291
1778559742.771549,599616056229223164,1095,-300
1778559742.779241,599616056236915471,1095,-293
1778559742.786933,599616056244607778,1095,-257
1778559742.794626,599616056252300085,1095,-244
1778559742.802318,599616056259992392,1095,-276
1778559742.810010,599616056267684699,1095,-300
1778559742.817703,599616056275377006,1095,-307
1778559742.825395,599616056283069313,1095,-317
1778559742.833087,599616056290761620,1095,-315
1778559742.820472,599616056298202572,1168,-303
1778559742.828164,599616056305894879,1168,-305
1778559742.835857,599616056313587186,1168,-317
1778559742.843549,599616056321279493,1168,-312
1778559742.851241,599616056328971800,1168,-278
1778559742.858933,599616056336664107,1168,-220
1778559742.866626,599616056344356414,1168,-128
1778559742.874318,599616056352048721,1168,29
1778559742.882010,599616056359741028,1168,349
1778559742.889703,599616056367433335,1168,594
1778559742.897395,599616056375125642,1168,-77
1778559742.905087,599616056382817949,1168,-1110
1778559742.912780,599616056390510256,1168,-894
1778559742.920472,599616056398202563,1168,-208
1778559742.928164,599616056405894870,1168,-324
1778559742.935857,599616056413587177,1168,-492
1778559742.943549,599616056421279484,1168,-312
1778559742.951241,599616056428971791,1168,-291
1778559742.958934,599616056436664098,1168,-375
1778559742.966626,599616056444356405,1168,-341
1778559742.974318,599616056452048712,1168,-300
1778559742.982010,599616056459741019,1168,-317
1778559742.989703,599616056467433326,1168,-322
1778559742.997395,599616056475125633,1168,-300
1778559743.005087,599616056482817940,1168,-278
1778559743.012780,599616056490510247,1168,-269
1778559743.020472,599616056498202554,1168,-271
1778559743.028164,599616056505894861,1168,-278
1778559743.035856,599616056513587168,1168,-274
1778559743.043549,599616056521279475,1168,-244
1778559743.051241,599616056528971782,1168,-220
1778559743.058933,599616056536664089,1168,-227
1778559743.066626,599616056544356396,1168,-232
1778559743.074318,599616056552048703,1168,-181
1778559743.082011,599616056559741010,1168,-138
1778559743.089703,599616056567433317,1168,-145
1778559743.097395,599616056575125624,1168,-126
1778559743.105087,599616056582817931,1168,-75
1778559743.112780,599616056590510238,1168,-50
1778559743.120472,599616056598202545,1168,-19
1778559743.128164,599616056605894852,1168,31
1778559743.135857,599616056613587159,1168,48
1778559743.143549,599616056621279466,1168,82
1778559743.151241,599616056628971773,1168,150
1778559743.158933,599616056636664080,1168,164
1778559743.166626,599616056644356387,1168,157
1778559743.174318,599616056652048694,1168,155
1778559743.182010,599616056659741001,1168,106
1778559743.189703,599616056667433308,1168,29
1778559743.197395,599616056675125615,1168,-48
1778559743.205087,599616056682817922,1168,-164
1778559743.212780,599616056690510229,1168,-300
1778559743.220472,599616056698202536,1168,-383
1778559743.228164,599616056705894843,1168,-424
1778559743.235857,599616056713587150,1168,-453
1778559743.243549,599616056721279457,1168,-460
1778559743.251241,599616056728971764,1168,-480
1778559743.258934,599616056736664071,1168,-504
1778559743.266626,599616056744356378,1168,-482
1778559743.274318,599616056752048685,1168,-448
1778559743.282010,599616056759740992,1168,-455
1778559743.289703,599616056767433299,1168,-470
1778559743.297395,599616056775125606,1168,-460
1778559743.305087,599616056782817913,1168,-429
1778559743.312780,599616056790510220,1168,-395
1778559743.320472,599616056798202527,1168,-375
1778559743.328164,599616056805894834,1168,-383
1778559743.335857,599616056813587141,1168,-395
1778559743.343549,599616056821279448,1168,-385
1778559743.351241,599616056828971755,1168,-363
1778559743.358933,599616056836664062,1168,-344
1778559743.366626,599616056844356369,1168,-332
1778559743.374318,599616056852048676,1168,-329
1778559743.360523,599616056859489628,1241,-322
1778559743.368215,599616056867181935,1241,-291
1778559743.375907,599616056874874242,1241,-269
1778559743.383600,599616056882566549,1241,-286
1778559743.391292,599616056890258856,1241,-281
1778559743.398984,599616056897951163,1241,-259
1778559743.406677,599616056905643470,1241,-295
1778559743.414369,599616056913335777,1241,-339
1778559743.422061,599616056921028084,1241,-329
1778559743.429754,599616056928720391,1241,-312
1778559743.437446,599616056936412698,1241,-324
1778559743.445138,599616056944105005,1241,-324
1778559743.452830,599616056951797312,1241,-295
1778559743.460523,599616056959489619,1241,-278
1778559743.468215,599616056967181926,1241,-278
1778559743.475907,599616056974874233,1241,-300
1778559743.483600,599616056982566540,1241,-339
1778559743.491292,599616056990258847,1241,-320
1778559743.498984,599616056997951154,1241,-271
1778559743.506677,599616057005643461,1241,-281
1778559743.514369,599616057013335768,1241,-307
1778559743.522061,599616057021028075,1241,-305
1778559743.529753,599616057028720382,1241,-312
1778559743.537446,599616057036412689,1241,-334
1778559743.545138,599616057044104996,1241,-324
1778559743.552830,599616057051797303,1241,-300
1778559743.560523,599616057059489610,1241,-300
1778559743.568215,599616057067181917,1241,-327
1778559743.575907,599616057074874224,1241,-344
1778559743.583600,599616057082566531,1241,-329
1778559743.591292,599616057090258838,1241,-327
1778559743.598984,599616057097951145,1241,-344
1778559743.606677,599616057105643452,1241,-344
1778559743.614369,599616057113335759,1241,-332
1778559743.622061,599616057121028066,1241,-317
1778559743.629754,599616057128720373,1241,-298
1778559743.637446,599616057136412680,1241,-307
1778559743.645138,599616057144104987,1241,-358
1778559743.652830,599616057151797294,1241,-380
1778559743.660523,599616057159489601,1241,-349
1778559743.668215,599616057167181908,1241,-312
1778559743.675907,599616057174874215,1241,-310
1778559743.683600,599616057182566522,1241,-339
1778559743.691292,599616057190258829,1241,-332
1778559743.698984,599616057197951136,1241,-303
1778559743.706676,599616057205643443,1241,-322
1778559743.714369,599616057213335750,1241,-356
1778559743.722061,599616057221028057,1241,-344
1778559743.729753,599616057228720364,1241,-334
1778559743.737446,599616057236412671,1241,-366
1778559743.745138,599616057244104978,1241,-375
1778559743.752831,599616057251797285,1241,-339
1778559743.760523,599616057259489592,1241,-339
1778559743.768215,599616057267181899,1241,-351
1778559743.775907,599616057274874206,1241,-276
1778559743.783600,599616057282566513,1241,-121
1778559743.791292,599616057290258820,1241,82
1778559743.798984,599616057297951127,1241,438
1778559743.806677,599616057305643434,1241,591
1778559743.814369,599616057313335741,1241,-264
1778559743.822061,599616057321028048,1241,-1176
1778559743.829753,599616057328720355,1241,-734
1778559743.837446,599616057336412662,1241,-164
1778559743.845138,599616057344104969,1241,-366
1778559743.852830,599616057351797276,1241,-438
1778559743.860523,599616057359489583,1241,-315
1778559743.868215,599616057367181890,1241,-356
1778559743.875907,599616057374874197,1241,-375
1778559743.883600,599616057382566504,1241,-327
1778559743.891292,599616057390258811,1241,-322
1778559743.898984,599616057397951118,1241,-329
1778559743.906677,599616057405643425,1241,-315
1778559743.914369,599616057413335732,1241,-295
1778559743.990917,599616057420776684,1314,-288
1778559743.998610,599616057428468991,1314,-281
1778559744.006302,599616057436161298,1314,-271
1778559744.013994,599616057443853605,1314,-266
1778559744.021686,599616057451545912,1314,-276
1778559744.029379,599616057459238219,1314,-269
1778559744.037071,599616057466930526,1314,-244
1778559744.044763,599616057474622833,1314,-237
1778559744.052456,599616057482315140,1314,-225
1778559744.060148,599616057490007447,1314,-196
1778559744.067840,599616057497699754,1314,-194
1778559744.075533,599616057505392061,1314,-194
1778559744.083225,599616057513084368,1314,-157
1778559744.090917,599616057520776675,1314,-116
1778559744.098609,599616057528468982,1314,-94
1778559744.106302,599616057536161289,1314,-63
1778559744.113994,599616057543853596,1314,-14
1778559744.121686,599616057551545903,1314,29
1778559744.129379,599616057559238210,1314,58
1778559744.137071,599616057566930517,1314,84
1778559744.144763,599616057574622824,1314,106
1778559744.152456,599616057582315131,1314,113
1778559744.160148,599616057590007438,1314,99
1778559744.167840,599616057597699745,1314,53
1778559744.175533,599616057605392052,1314,-16
1778559744.183225,599616057613084359,1314,-99
1778559744.190917,599616057620776666,1314,-210
1778559744.198610,599616057628468973,1314,-320
1778559744.206302,599616057636161280,1314,-375
1778559744.213994,599616057643853587,1314,-412
1778559744.221686,599616057651545894,1314,-448
1778559744.229379,599616057659238201,1314,-463
1778559744.237071,599616057666930508,1314,-453
1778559744.244763,599616057674622815,1314,-441
1778559744.252456,599616057682315122,1314,-431
1778559744.260148,599616057690007429,1314,-421
1778559744.267840,599616057697699736,1314,-404
1778559744.275532,599616057705392043,1314,-392
1778559744.283225,599616057713084350,1314,-385
1778559744.290917,599616057720776657,1314,-385
1778559744.298609,599616057728468964,1314,-373
1778559744.306302,599616057736161271,1314,-346
1778559744.313994,599616057743853578,1314,-337
1778559744.321687,599616057751545885,1314,-337
1778559744.329379,599616057759238192,1314,-329
1778559744.337071,599616057766930499,1314,-322
1778559744.344763,599616057774622806,1314,-300
1778559744.352456,599616057782315113,1314,-281
1778559744.360148,599616057790007420,1314,-281
1778559744.367840,599616057797699727,1314,-283
1778559744.375533,599616057805392034,1314,-300
1778559744.383225,599616057813084341,1314,-293
1778559744.390917,599616057820776648,1314,-218
1778559744.398609,599616057828468955,1314,-164
1778559744.406302,599616057836161262,1314,-167
1778559744.413994,599616057843853569,1314,-227
1778559744.421686,599616057851545876,1314,-327
1778559744.429379,599616057859238183,1314,-329
1778559744.437071,599616057866930490,1314,-310
1778559744.444763,599616057874622797,1314,-368
1778559744.452456,599616057882315104,1314,-358
1778559744.460148,599616057890007411,1314,-295
1778559744.467840,599616057897699718,1314,-286
1778559744.475533,599616057905392025,1314,-315
1778559744.483225,599616057913084332,1314,-337
1778559744.490917,599616057920776639,1314,-329
1778559744.498610,599616057928468946,1314,-317
1778559744.506302,599616057936161253,1314,-329
1778559744.513994,599616057943853560,1314,-334
1778559744.521686,599616057951545867,1314,-307
1778559744.529379,599616057959238174,1314,-278
1778559744.537071,599616057966930481,1314,-324
1778559744.544763,599616057974622788,1314,-404
1778559744.530757,599616057982063740,1387,-361
1778559744.538449,599616057989756047,1387,-274
1778559744.546141,599616057997448354,1387,-322
1778559744.553833,599616058005140661,1387,-383
1778559744.561526,599616058012832968,1387,-368
1778559744.569218,599616058020525275,1387,-380
1778559744.576910,599616058028217582,1387,-385
1778559744.584603,599616058035909889,1387,-351
1778559744.592295,599616058043602196,1387,-390
1778559744.599988,599616058051294503,1387,-438
1778559744.607680,599616058058986810,1387,-383
1778559744.615372,599616058066679117,1387,-332
1778559744.623064,599616058074371424,1387,-329
1778559744.630757,599616058082063731,1387,-334
1778559744.638449,599616058089756038,1387,-351
1778559744.646141,599616058097448345,1387,-356
1778559744.653834,599616058105140652,1387,-380
1778559744.661526,599616058112832959,1387,-402
1778559744.669218,599616058120525266,1387,-390
1778559744.676911,599616058128217573,1387,-385
1778559744.684603,599616058135909880,1387,-390
1778559744.692295,599616058143602187,1387,-419
1778559744.699987,599616058151294494,1387,-421
1778559744.707680,599616058158986801,1387,-373
1778559744.715372,599616058166679108,1387,-375
1778559744.723064,599616058174371415,1387,-346
1778559744.730757,599616058182063722,1387,-140
1778559744.738449,599616058189756029,1387,181
1778559744.746141,599616058197448336,1387,552
1778559744.753834,599616058205140643,1387,414
1778559744.761526,599616058212832950,1387,-662
1778559744.769218,599616058220525257,1387,-1251
1778559744.776911,599616058228217564,1387,-579
1778559744.784603,599616058235909871,1387,-242
1778559744.792295,599616058243602178,1387,-540
1778559744.799988,599616058251294485,1387,-472
1778559744.807680,599616058258986792,1387,-310
1778559744.815372,599616058266679099,1387,-426
1778559744.823064,599616058274371406,1387,-482
1778559744.830757,599616058282063713,1387,-402
1778559744.838449,599616058289756020,1387,-378
1778559744.846141,599616058297448327,1387,-390
1778559744.853834,599616058305140634,1387,-361
1778559744.861526,599616058312832941,1387,-344
1778559744.869218,599616058320525248,1387,-351
1778559744.876910,599616058328217555,1387,-344
1778559744.884603,599616058335909862,1387,-329
1778559744.892295,599616058343602169,1387,-322
1778559744.899987,599616058351294476,1387,-317
1778559744.907680,599616058358986783,1387,-295
1778559744.915372,599616058366679090,1387,-257
1778559744.923064,599616058374371397,1387,-259
1778559744.930757,599616058382063704,1387,-274
1778559744.938449,599616058389756011,1387,-244
1778559744.946141,599616058397448318,1387,-210
1778559744.953834,599616058405140625,1387,-189
1778559744.961526,599616058412832932,1387,-167
1778559744.969218,599616058420525239,1387,-177
1778559744.976911,599616058428217546,1387,-157
1778559744.984603,599616058435909853,1387,-80
1778559744.992295,599616058443602160,1387,-24
1778559744.999987,599616058451294467,1387,-2
1778559745.007680,599616058458986774,1387,31
1778559745.015372,599616058466679081,1387,75
1778559745.023064,599616058474371388,1387,84
1778559745.030757,599616058482063695,1387,80
1778559745.038449,599616058489756002,1387,67
1778559745.046141,599616058497448309,1387,0
1778559745.053833,599616058505140616,1387,-99
1778559745.061526,599616058512832923,1387,-167
1778559745.069218,599616058520525230,1387,-240
1778559745.076910,599616058528217537,1387,-334
1778559745.084603,599616058535909844,1387,-390
1778559745.070572,599616058543350796,1460,-426
1778559745.078264,599616058551043103,1460,-465
1778559745.085957,599616058558735410,1460,-480
1778559745.093649,599616058566427717,1460,-463
1778559745.101341,599616058574120024,1460,-443
1778559745.109034,599616058581812331,1460,-429
1778559745.116726,599616058589504638,1460,-419
1778559745.124418,599616058597196945,1460,-417
1778559745.132111,599616058604889252,1460,-400
1778559745.139803,599616058612581559,1460,-378
1778559745.147495,599616058620273866,1460,-378
1778559745.155188,599616058627966173,1460,-361
1778559745.162880,599616058635658480,1460,-324
1778559745.170572,599616058643350787,1460,-303
1778559745.178264,599616058651043094,1460,-293
1778559745.185957,599616058658735401,1460,-291
1778559745.193649,599616058666427708,1460,-286
1778559745.201341,599616058674120015,1460,-269
1778559745.209034,599616058681812322,1460,-257
1778559745.216726,599616058689504629,1460,-254
1778559745.224418,599616058697196936,1460,-244
1778559745.232111,599616058704889243,1460,-218
1778559745.239803,599616058712581550,1460,-206
1778559745.247495,599616058720273857,1460,-220
1778559745.255188,599616058727966164,1460,-227
1778559745.262880,599616058735658471,1460,-208
1778559745.270572,599616058743350778,1460,-215
1778559745.278265,599616058751043085,1460,-242
1778559745.285957,599616058758735392,1460,-227
1778559745.293649,599616058766427699,1460,-198
1778559745.301341,599616058774120006,1460,-215
1778559745.309034,599616058781812313,1460,-242
1778559745.316726,599616058789504620,1460,-242
1778559745.324418,599616058797196927,1460,-227
1778559745.332111,599616058804889234,1460,-230
1778559745.339803,599616058812581541,1460,-242
1778559745.347495,599616058820273848,1460,-203
1778559745.355187,599616058827966155,1460,-208
1778559745.362880,599616058835658462,1460,-283
1778559745.370572,599616058843350769,1460,-259
1778559745.378264,599616058851043076,1460,-194
1778559745.385957,599616058858735383,1460,-254
1778559745.393649,599616058866427690,1460,-324
1778559745.401341,599616058874119997,1460,-291
1778559745.409034,599616058881812304,1460,-291
1778559745.416726,599616058889504611,1460,-317
1778559745.424418,599616058897196918,1460,-281
1778559745.432111,599616058904889225,1460,-291
1778559745.439803,599616058912581532,1460,-329
1778559745.447495,599616058920273839,1460,-320
1778559745.455188,599616058927966146,1460,-356
1778559745.462880,599616058935658453,1460,-395
1778559745.470572,599616058943350760,1460,-334
1778559745.478264,599616058951043067,1460,-286
1778559745.485957,599616058958735374,1460,-307
1778559745.493649,599616058966427681,1460,-327
1778559745.501341,599616058974119988,1460,-341
1778559745.509034,599616058981812295,1460,-368
1778559745.516726,599616058989504602,1460,-378
1778559745.524418,599616058997196909,1460,-368
1778559745.532110,599616059004889216,1460,-373
1778559745.539803,599616059012581523,1460,-400
1778559745.547495,599616059020273830,1460,-402
1778559745.555187,599616059027966137,1460,-371
1778559745.562880,599616059035658444,1460,-366
1778559745.570572,599616059043350751,1460,-380
1778559745.578264,599616059051043058,1460,-324
1778559745.585957,599616059058735365,1460,-174
1778559745.593649,599616059066427672,1460,126
1778559745.601341,599616059074119979,1460,599
1778559745.609034,599616059081812286,1460,480
1778559745.616726,599616059089504593,1460,-642
1778559745.624418,599616059097196900,1460,-1178
1778559745.608899,599616059104637852,1533,-511
1778559745.616591,599616059112330159,1533,-237
1778559745.624284,599616059120022466,1533,-514
1778559745.631976,599616059127714773,1533,-448
1778559745.639668,599616059135407080,1533,-322
1778559745.647360,599616059143099387,1533,-397
1778559745.655053,599616059150791694,1533,-404
1778559745.662745,599616059158484001,1533,-356
1778559745.670437,599616059166176308,1533,-378
1778559745.678130,599616059173868615,1533,-383
1778559745.685822,599616059181560922,1533,-344
1778559745.693514,599616059189253229,1533,-329
1778559745.701206,599616059196945536,1533,-332
1778559745.708899,599616059204637843,1533,-324
1778559745.716591,599616059212330150,1533,-310
1778559745.724283,599616059220022457,1533,-298
1778559745.731976,599616059227714764,1533,-286
1778559745.739668,599616059235407071,1533,-276
1778559745.747360,599616059243099378,1533,-269
1778559745.755053,599616059250791685,1533,-247
1778559745.762745,599616059258483992,1533,-235
1778559745.770437,599616059266176299,1533,-218
1778559745.778130,599616059273868606,1533,-184
1778559745.785822,599616059281560913,1533,-152
1778559745.793514,599616059289253220,1533,-135
1778559745.801207,599616059296945527,1533,-104
1778559745.808899,599616059304637834,1533,-55
1778559745.816591,599616059312330141,1533,-14
1778559745.824283,599616059320022448,1533,14
1778559745.831976,599616059327714755,1533,55
1778559745.839668,599616059335407062,1533,87
1778559745.847360,599616059343099369,1533,92
1778559745.855053,599616059350791676,1533,106
1778559745.862745,599616059358483983,1533,121
1778559745.870437,599616059366176290,1533,101
1778559745.878130,599616059373868597,1533,48
1778559745.885822,599616059381560904,1533,-33
1778559745.893514,599616059389253211,1533,-133
1778559745.901206,599616059396945518,1533,-227
1778559745.908899,599616059404637825,1533,-293
1778559745.916591,599616059412330132,1533,-339
1778559745.924284,599616059420022439,1533,-397
1778559745.931976,599616059427714746,1533,-451
1778559745.939668,599616059435407053,1533,-446
1778559745.947360,599616059443099360,1533,-419
1778559745.955053,599616059450791667,1533,-407
1778559745.962745,599616059458483974,1533,-397
1778559745.970437,599616059466176281,1533,-385
1778559745.978130,599616059473868588,1533,-371
1778559745.985822,599616059481560895,1533,-358
1778559745.993514,599616059489253202,1533,-361
1778559746.001207,599616059496945509,1533,-356
1778559746.008899,599616059504637816,1533,-324
1778559746.016591,599616059512330123,1533,-293
1778559746.024283,599616059520022430,1533,-291
1778559746.031976,599616059527714737,1533,-298
1778559746.039668,599616059535407044,1533,-286
1778559746.047360,599616059543099351,1533,-261
1778559746.055053,599616059550791658,1533,-244
1778559746.062745,599616059558483965,1533,-257
1778559746.070437,599616059566176272,1533,-286
1778559746.078130,599616059573868579,1533,-281
1778559746.085822,599616059581560886,1533,-264
1778559746.093514,599616059589253193,1533,-264
1778559746.101207,599616059596945500,1533,-259
1778559746.108899,599616059604637807,1533,-254
1778559746.116591,599616059612330114,1533,-261
1778559746.124284,599616059620022421,1533,-266
1778559746.131976,599616059627714728,1533,-264
1778559746.139668,599616059635407035,1533,-269
1778559746.147360,599616059643099342,1533,-278
1778559746.155053,599616059650791649,1533,-283
1778559746.162745,599616059658483956,1533,-286
1778559746.196335,599616059665924908,1606,-300
1778559746.204027,599616059673617215,1606,-312
1778559746.211719,599616059681309522,1606,-310
1778559746.219411,599616059689001829,1606,-310
1778559746.227104,599616059696694136,1606,-312
1778559746.234796,599616059704386443,1606,-312
1778559746.242488,599616059712078750,1606,-310
1778559746.250181,599616059719771057,1606,-315
1778559746.257873,599616059727463364,1606,-320
1778559746.265565,599616059735155671,1606,-307
1778559746.273258,599616059742847978,1606,-315
1778559746.280950,599616059750540285,1606,-349
1778559746.288642,599616059758232592,1606,-358
1778559746.296335,599616059765924899,1606,-361
1778559746.304027,599616059773617206,1606,-375
1778559746.311719,599616059781309513,1606,-346
1778559746.319412,599616059789001820,1606,-303
1778559746.327104,599616059796694127,1606,-300
1778559746.334796,599616059804386434,1606,-312
1778559746.342489,599616059812078741,1606,-310
1778559746.350181,599616059819771048,1606,-317
1778559746.357873,599616059827463355,1606,-344
1778559746.365565,599616059835155662,1606,-366
1778559746.373258,599616059842847969,1606,-368
1778559746.380950,599616059850540276,1606,-361
1778559746.388642,599616059858232583,1606,-354
1778559746.396335,599616059865924890,1606,-354
1778559746.404027,599616059873617197,1606,-356
1778559746.411719,599616059881309504,1606,-339
1778559746.419411,599616059889001811,1606,-291
1778559746.427104,599616059896694118,1606,-203
1778559746.434796,599616059904386425,1606,-87
1778559746.442488,599616059912078732,1606,189
1778559746.450181,599616059919771039,1606,586
1778559746.457873,599616059927463346,1606,264
1778559746.465565,599616059935155653,1606,-873
1778559746.473258,599616059942847960,1606,-1120
1778559746.480950,599616059950540267,1606,-368
1778559746.488642,599616059958232574,1606,-242
1778559746.496335,599616059965924881,1606,-497
1778559746.504027,599616059973617188,1606,-366
1778559746.511719,599616059981309495,1606,-298
1778559746.519412,599616059989001802,1606,-407
1778559746.527104,599616059996694109,1606,-388
1778559746.534796,599616060004386416,1606,-322
1778559746.542488,599616060012078723,1606,-329
1778559746.550181,599616060019771030,1606,-334
1778559746.557873,599616060027463337,1606,-322
1778559746.565565,599616060035155644,1606,-307
1778559746.573258,599616060042847951,1606,-295
1778559746.580950,599616060050540258,1606,-291
1778559746.588642,599616060058232565,1606,-278
1778559746.596334,599616060065924872,1606,-261
1778559746.604027,599616060073617179,1606,-257
1778559746.611719,599616060081309486,1606,-257
1778559746.619411,599616060089001793,1606,-244
1778559746.627104,599616060096694100,1606,-227
1778559746.634796,599616060104386407,1606,-215
1778559746.642488,599616060112078714,1606,-208
1778559746.650181,599616060119771021,1606,-186
1778559746.657873,599616060127463328,1606,-155
1778559746.665565,599616060135155635,1606,-130
1778559746.673258,599616060142847942,1606,-109
1778559746.680950,599616060150540249,1606,-75
1778559746.688642,599616060158232556,1606,-31
1778559746.696335,599616060165924863,1606,2
1778559746.704027,599616060173617170,1606,29
1778559746.711719,599616060181309477,1606,63
1778559746.719411,599616060189001784,1606,87
1778559746.727104,599616060196694091,1606,87
1778559746.734796,599616060204386398,1606,75
1778559746.742488,599616060212078705,1606,33
1778559746.750181,599616060219771012,1606,-38
1778559746.734205,599616060227211964,1679,-128
1778559746.741897,599616060234904271,1679,-230
1778559746.749589,599616060242596578,1679,-329
1778559746.757281,599616060250288885,1679,-407
1778559746.764974,599616060257981192,1679,-460
1778559746.772666,599616060265673499,1679,-489
1778559746.780358,599616060273365806,1679,-504
1778559746.788051,599616060281058113,1679,-514
1778559746.795743,599616060288750420,1679,-523
1778559746.803435,599616060296442727,1679,-516
1778559746.811128,599616060304135034,1679,-497
1778559746.818820,599616060311827341,1679,-477
1778559746.826512,599616060319519648,1679,-463
1778559746.834204,599616060327211955,1679,-455
1778559746.841897,599616060334904262,1679,-438
1778559746.849589,599616060342596569,1679,-441
1778559746.857281,599616060350288876,1679,-477
1778559746.864974,599616060357981183,1679,-468
1778559746.872666,599616060365673490,1679,-421
1778559746.880358,599616060373365797,1679,-412
1778559746.888051,599616060381058104,1679,-400
1778559746.895743,599616060388750411,1679,-385
1778559746.903435,599616060396442718,1679,-392
1778559746.911128,599616060404135025,1679,-378
1778559746.918820,599616060411827332,1679,-356
1778559746.926512,599616060419519639,1679,-368
1778559746.934205,599616060427211946,1679,-375
1778559746.941897,599616060434904253,1679,-358
1778559746.949589,599616060442596560,1679,-344
1778559746.957281,599616060450288867,1679,-339
1778559746.964974,599616060457981174,1679,-344
1778559746.972666,599616060465673481,1679,-344
1778559746.980358,599616060473365788,1679,-341
1778559746.988051,599616060481058095,1679,-341
1778559746.995743,599616060488750402,1679,-344
1778559747.003435,599616060496442709,1679,-346
1778559747.011127,599616060504135016,1679,-349
1778559747.018820,599616060511827323,1679,-334
1778559747.026512,599616060519519630,1679,-307
1778559747.034204,599616060527211937,1679,-303
1778559747.041897,599616060534904244,1679,-320
1778559747.049589,599616060542596551,1679,-322
1778559747.057281,599616060550288858,1679,-329
1778559747.064974,599616060557981165,1679,-354
1778559747.072666,599616060565673472,1679,-344
1778559747.080358,599616060573365779,1679,-332
1778559747.088051,599616060581058086,1679,-354
1778559747.095743,599616060588750393,1679,-371
1778559747.103435,599616060596442700,1679,-329
1778559747.111128,599616060604135007,1679,-274
1778559747.118820,599616060611827314,1679,-278
1778559747.126512,599616060619519621,1679,-300
1778559747.134204,599616060627211928,1679,-293
1778559747.141897,599616060634904235,1679,-274
1778559747.149589,599616060642596542,1679,-303
1778559747.157281,599616060650288849,1679,-337
1778559747.164974,599616060657981156,1679,-322
1778559747.172666,599616060665673463,1679,-329
1778559747.180358,599616060673365770,1679,-339
1778559747.188051,599616060681058077,1679,-305
1778559747.195743,599616060688750384,1679,-298
1778559747.203435,599616060696442691,1679,-339
1778559747.211128,599616060704134998,1679,-337
1778559747.218820,599616060711827305,1679,-259
1778559747.226512,599616060719519612,1679,-174
1778559747.234205,599616060727211919,1679,-55
1778559747.241897,599616060734904226,1679,271
1778559747.249589,599616060742596533,1679,676
1778559747.257281,599616060750288840,1679,334
1778559747.264974,599616060757981147,1679,-720
1778559747.272666,599616060765673454,1679,-950
1778559747.280358,599616060773365761,1679,-334
1778559747.288051,599616060781058068,1679,-227
1778559747.320038,599616060788499020,1752,-421
1778559747.327730,599616060796191327,1752,-329
1778559747.335423,599616060803883634,1752,-288
1778559747.343115,599616060811575941,1752,-332
1778559747.350807,599616060819268248,1752,-293
1778559747.358500,599616060826960555,1752,-298
1778559747.366192,599616060834652862,1752,-339
1778559747.373884,599616060842345169,1752,-327
1778559747.381577,599616060850037476,1752,-310
1778559747.389269,599616060857729783,1752,-303
1778559747.396961,599616060865422090,1752,-286
1778559747.404654,599616060873114397,1752,-271
1778559747.412346,599616060880806704,1752,-269
1778559747.420038,599616060888499011,1752,-271
1778559747.427730,599616060896191318,1752,-266
1778559747.435423,599616060903883625,1752,-252
1778559747.443115,599616060911575932,1752,-237
1778559747.450807,599616060919268239,1752,-232
1778559747.458500,599616060926960546,1752,-242
1778559747.466192,599616060934652853,1752,-223
1778559747.473884,599616060942345160,1752,-167
1778559747.481576,599616060950037467,1752,-145
1778559747.489269,599616060957729774,1752,-140
1778559747.496961,599616060965422081,1752,-94
1778559747.504653,599616060973114388,1752,-72
1778559747.512346,599616060980806695,1752,-72
1778559747.520038,599616060988499002,1752,-24
1778559747.527730,599616060996191309,1752,29
1778559747.535423,599616061003883616,1752,50
1778559747.543115,599616061011575923,1752,63
1778559747.550807,599616061019268230,1752,53
1778559747.558500,599616061026960537,1752,21
1778559747.566192,599616061034652844,1752,4
1778559747.573884,599616061042345151,1752,-26
1778559747.581577,599616061050037458,1752,-104
1778559747.589269,599616061057729765,1752,-194
1778559747.596961,599616061065422072,1752,-281
1778559747.604653,599616061073114379,1752,-346
1778559747.612346,599616061080806686,1752,-375
1778559747.620038,599616061088498993,1752,-400
1778559747.627730,599616061096191300,1752,-426
1778559747.635423,599616061103883607,1752,-434
1778559747.643115,599616061111575914,1752,-431
1778559747.650807,599616061119268221,1752,-424
1778559747.658499,599616061126960528,1752,-412
1778559747.666192,599616061134652835,1752,-404
1778559747.673884,599616061142345142,1752,-397
1778559747.681576,599616061150037449,1752,-385
1778559747.689269,599616061157729756,1752,-383
1778559747.696961,599616061165422063,1752,-390
1778559747.704654,599616061173114370,1752,-385
1778559747.712346,599616061180806677,1752,-375
1778559747.720038,599616061188498984,1752,-375
1778559747.727730,599616061196191291,1752,-378
1778559747.735423,599616061203883598,1752,-366
1778559747.743115,599616061211575905,1752,-341
1778559747.750807,599616061219268212,1752,-339
1778559747.758500,599616061226960519,1752,-349
1778559747.766192,599616061234652826,1752,-349
1778559747.773884,599616061242345133,1752,-400
1778559747.781576,599616061250037440,1752,-421
1778559747.789269,599616061257729747,1752,-361
1778559747.796961,599616061265422054,1752,-351
1778559747.804653,599616061273114361,1752,-375
1778559747.812346,599616061280806668,1752,-354
1778559747.820038,599616061288498975,1752,-341
1778559747.827730,599616061296191282,1752,-361
1778559747.835423,599616061303883589,1752,-366
1778559747.843115,599616061311575896,1752,-356
1778559747.850807,599616061319268203,1752,-361
1778559747.858500,599616061326960510,1752,-371
1778559747.866192,599616061334652817,1752,-371
1778559747.873884,599616061342345124,1752,-375
1778559747.904387,599616061349786076,1825,-380
1778559747.912079,599616061357478383,1825,-361
1778559747.919771,599616061365170690,1825,-354
1778559747.927464,599616061372862997,1825,-385
1778559747.935156,599616061380555304,1825,-407
1778559747.942848,599616061388247611,1825,-400
1778559747.950541,599616061395939918,1825,-378
1778559747.958233,599616061403632225,1825,-344
1778559747.965925,599616061411324532,1825,-329
1778559747.973618,599616061419016839,1825,-346
1778559747.981310,599616061426709146,1825,-341
1778559747.989002,599616061434401453,1825,-327
1778559747.996694,599616061442093760,1825,-346
1778559748.004387,599616061449786067,1825,-380
1778559748.012079,599616061457478374,1825,-392
1778559748.019771,599616061465170681,1825,-392
1778559748.027464,599616061472862988,1825,-385
1778559748.035156,599616061480555295,1825,-375
1778559748.042848,599616061488247602,1825,-373
1778559748.050541,599616061495939909,1825,-383
1778559748.058233,599616061503632216,1825,-363
1778559748.065925,599616061511324523,1825,-283
1778559748.073617,599616061519016830,1825,-174
1778559748.081310,599616061526709137,1825,46
1778559748.089002,599616061534401444,1825,446
1778559748.096694,599616061542093751,1825,404
1778559748.104387,599616061549786058,1825,-574
1778559748.112079,599616061557478365,1825,-1147
1778559748.119771,599616061565170672,1825,-509
1778559748.127464,599616061572862979,1825,-181
1778559748.135156,599616061580555286,1825,-494
1778559748.142848,599616061588247593,1825,-465
1778559748.150541,599616061595939900,1825,-307
1778559748.158233,599616061603632207,1825,-380
1778559748.165925,599616061611324514,1825,-402
1778559748.173618,599616061619016821,1825,-341
1778559748.181310,599616061626709128,1825,-349
1778559748.189002,599616061634401435,1825,-346
1778559748.196694,599616061642093742,1825,-320
1778559748.204387,599616061649786049,1825,-317
1778559748.212079,599616061657478356,1825,-305
1778559748.219771,599616061665170663,1825,-286
1778559748.227464,599616061672862970,1825,-286
1778559748.235156,599616061680555277,1825,-298
1778559748.242848,599616061688247584,1825,-310
1778559748.250540,599616061695939891,1825,-288
1778559748.258233,599616061703632198,1825,-254
1778559748.265925,599616061711324505,1825,-252
1778559748.273618,599616061719016812,1825,-235
1778559748.281310,599616061726709119,1825,-194
1778559748.289002,599616061734401426,1825,-184
1778559748.296695,599616061742093733,1825,-181
1778559748.304387,599616061749786040,1825,-152
1778559748.312079,599616061757478347,1825,-126
1778559748.319771,599616061765170654,1825,-101
1778559748.327464,599616061772862961,1825,-53
1778559748.335156,599616061780555268,1825,-7
1778559748.342848,599616061788247575,1825,4
1778559748.350541,599616061795939882,1825,24
1778559748.358233,599616061803632189,1825,58
1778559748.365925,599616061811324496,1825,65
1778559748.373617,599616061819016803,1825,58
1778559748.381310,599616061826709110,1825,21
1778559748.389002,599616061834401417,1825,-63
1778559748.396694,599616061842093724,1825,-155
1778559748.404387,599616061849786031,1825,-227
1778559748.412079,599616061857478338,1825,-322
1778559748.419771,599616061865170645,1825,-419
1778559748.427464,599616061872862952,1825,-465
1778559748.435156,599616061880555259,1825,-489
1778559748.442848,599616061888247566,1825,-511
1778559748.450541,599616061895939873,1825,-497
1778559748.458233,599616061903632180,1825,-485
1778559748.490757,599616061911057871,1898,-504
1778559748.498449,599616061918750178,1898,-504
1778559748.506142,599616061926442485,1898,-472
1778559748.513834,599616061934134792,1898,-470
1778559748.521526,599616061941827099,1898,-485
1778559748.529218,599616061949519406,1898,-472
1778559748.536911,599616061957211713,1898,-458
1778559748.544603,599616061964904020,1898,-453
1778559748.552295,599616061972596327,1898,-441
1778559748.559988,599616061980288634,1898,-441
1778559748.567680,599616061987980941,1898,-441
1778559748.575372,599616061995673248,1898,-419
1778559748.583065,599616062003365555,1898,-400
1778559748.590757,599616062011057862,1898,-409
1778559748.598449,599616062018750169,1898,-414
1778559748.606142,599616062026442476,1898,-407
1778559748.613834,599616062034134783,1898,-400
1778559748.621526,599616062041827090,1898,-385
1778559748.629219,599616062049519397,1898,-383
1778559748.636911,599616062057211704,1898,-404
1778559748.644603,599616062064904011,1898,-397
1778559748.652295,599616062072596318,1898,-361
1778559748.659988,599616062080288625,1898,-356
1778559748.667680,599616062087980932,1898,-358
1778559748.675372,599616062095673239,1898,-344
1778559748.683065,599616062103365546,1898,-346
1778559748.690757,599616062111057853,1898,-368
1778559748.698449,599616062118750160,1898,-375
1778559748.706141,599616062126442467,1898,-354
1778559748.713834,599616062134134774,1898,-344
1778559748.721526,599616062141827081,1898,-356
1778559748.729218,599616062149519388,1898,-361
1778559748.736911,599616062157211695,1898,-354
1778559748.744603,599616062164904002,1898,-354
1778559748.752295,599616062172596309,1898,-363
1778559748.759988,599616062180288616,1898,-332
1778559748.767680,599616062187980923,1898,-278
1778559748.775372,599616062195673230,1898,-286
1778559748.783065,599616062203365537,1898,-307
1778559748.790757,599616062211057844,1898,-291
1778559748.798449,599616062218750151,1898,-298
1778559748.806142,599616062226442458,1898,-334
1778559748.813834,599616062234134765,1898,-341
1778559748.821526,599616062241827072,1898,-332
1778559748.829218,599616062249519379,1898,-327
1778559748.836911,599616062257211686,1898,-320
1778559748.844603,599616062264903993,1898,-324
1778559748.852295,599616062272596300,1898,-327
1778559748.859988,599616062280288607,1898,-307
1778559748.867680,599616062287980914,1898,-288
1778559748.875372,599616062295673221,1898,-237
1778559748.883065,599616062303365528,1898,-118
1778559748.890757,599616062311057835,1898,157
1778559748.898449,599616062318750142,1898,565
1778559748.906142,599616062326442449,1898,334
1778559748.913834,599616062334134756,1898,-696
1778559748.921526,599616062341827063,1898,-989
1778559748.929219,599616062349519370,1898,-327
1778559748.936911,599616062357211677,1898,-194
1778559748.944603,599616062364903984,1898,-455
1778559748.952295,599616062372596291,1898,-358
1778559748.959988,599616062380288598,1898,-281
1778559748.967680,599616062387980905,1898,-375
1778559748.975372,599616062395673212,1898,-356
1778559748.983065,599616062403365519,1898,-300
1778559748.990757,599616062411057826,1898,-329
1778559748.998449,599616062418750133,1898,-329
1778559749.006142,599616062426442440,1898,-293
1778559749.013834,599616062434134747,1898,-295
1778559749.021526,599616062441827054,1898,-298
1778559749.029218,599616062449519361,1898,-269
1778559749.036911,599616062457211668,1898,-271
1778559749.044603,599616062464903975,1898,-286
1778559748.985109,599616062472339840,1971,-261
1778559748.992801,599616062480032147,1971,-230
1778559749.000493,599616062487724454,1971,-227
1778559749.008185,599616062495416761,1971,-225
1778559749.015878,599616062503109068,1971,-208
1778559749.023570,599616062510801375,1971,-184
1778559749.031262,599616062518493682,1971,-174
1778559749.038955,599616062526185989,1971,-179
1778559749.046647,599616062533878296,1971,-155
1778559749.054339,599616062541570603,1971,-104
1778559749.062032,599616062549262910,1971,-75
1778559749.069724,599616062556955217,1971,-65
1778559749.077416,599616062564647524,1971,-36
1778559749.085109,599616062572339831,1971,14
1778559749.092801,599616062580032138,1971,43
1778559749.100493,599616062587724445,1971,36
1778559749.108186,599616062595416752,1971,36
1778559749.115878,599616062603109059,1971,46
1778559749.123570,599616062610801366,1971,7
1778559749.131263,599616062618493673,1971,-70
1778559749.138955,599616062626185980,1971,-155
1778559749.146647,599616062633878287,1971,-247
1778559749.154339,599616062641570594,1971,-337
1778559749.162032,599616062649262901,1971,-412
1778559749.169724,599616062656955208,1971,-451
1778559749.177416,599616062664647515,1971,-470
1778559749.185109,599616062672339822,1971,-502
1778559749.192801,599616062680032129,1971,-509
1778559749.200493,599616062687724436,1971,-487
1778559749.208185,599616062695416743,1971,-485
1778559749.215878,599616062703109050,1971,-492
1778559749.223570,599616062710801357,1971,-477
1778559749.231262,599616062718493664,1971,-458
1778559749.238955,599616062726185971,1971,-448
1778559749.246647,599616062733878278,1971,-441
1778559749.254339,599616062741570585,1971,-443
1778559749.262032,599616062749262892,1971,-441
1778559749.269724,599616062756955199,1971,-417
1778559749.277416,599616062764647506,1971,-404
1778559749.285109,599616062772339813,1971,-414
1778559749.292801,599616062780032120,1971,-412
1778559749.300493,599616062787724427,1971,-404
1778559749.308186,599616062795416734,1971,-395
1778559749.315878,599616062803109041,1971,-366
1778559749.323570,599616062810801348,1971,-363
1778559749.331262,599616062818493655,1971,-388
1778559749.338955,599616062826185962,1971,-373
1778559749.346647,599616062833878269,1971,-351
1778559749.354339,599616062841570576,1971,-363
1778559749.362032,599616062849262883,1971,-366
1778559749.369724,599616062856955190,1971,-351
1778559749.377416,599616062864647497,1971,-356
1778559749.385108,599616062872339804,1971,-358
1778559749.392801,599616062880032111,1971,-356
1778559749.400493,599616062887724418,1971,-351
1778559749.408185,599616062895416725,1971,-341
1778559749.415878,599616062903109032,1971,-346
1778559749.423570,599616062910801339,1971,-351
1778559749.431262,599616062918493646,1971,-332
1778559749.438955,599616062926185953,1971,-320
1778559749.446647,599616062933878260,1971,-324
1778559749.454339,599616062941570567,1971,-339
1778559749.462032,599616062949262874,1971,-344
1778559749.469724,599616062956955181,1971,-339
1778559749.477416,599616062964647488,1971,-329
1778559749.485109,599616062972339795,1971,-307
1778559749.492801,599616062980032102,1971,-283
1778559749.500493,599616062987724409,1971,-269
1778559749.508185,599616062995416716,1971,-259
1778559749.515878,599616063003109023,1971,-264
1778559749.523570,599616063010801330,1971,-295
1778559749.531262,599616063018493637,1971,-315
1778559749.538955,599616063026185944,1971,-310
1778559749.569759,599616063033621809,2044,-310
1778559749.577452,599616063041314116,2044,-324
1778559749.585144,599616063049006423,2044,-317
1778559749.592836,599616063056698730,2044,-293
1778559749.600528,599616063064391037,2044,-298
1778559749.608221,599616063072083344,2044,-307
1778559749.615913,599616063079775651,2044,-261
1778559749.623605,599616063087467958,2044,-184
1778559749.631298,599616063095160265,2044,-80
1778559749.638990,599616063102852572,2044,208
1778559749.646683,599616063110544879,2044,623
1778559749.654375,599616063118237186,2044,298
1778559749.662067,599616063125929493,2044,-771
1778559749.669759,599616063133621800,2044,-943
1778559749.677452,599616063141314107,2044,-249
1778559749.685144,599616063149006414,2044,-201
1778559749.692836,599616063156698721,2044,-465
1778559749.700529,599616063164391028,2044,-327
1778559749.708221,599616063172083335,2044,-242
1778559749.715913,599616063179775642,2044,-346
1778559749.723605,599616063187467949,2044,-339
1778559749.731298,599616063195160256,2044,-293
1778559749.738990,599616063202852563,2044,-312
1778559749.746682,599616063210544870,2044,-305
1778559749.754375,599616063218237177,2044,-278
1778559749.762067,599616063225929484,2044,-288
1778559749.769759,599616063233621791,2044,-283
1778559749.777452,599616063241314098,2044,-261
1778559749.785144,599616063249006405,2044,-271
1778559749.792836,599616063256698712,2044,-264
1778559749.800529,599616063264391019,2044,-223
1778559749.808221,599616063272083326,2044,-220
1778559749.815913,599616063279775633,2044,-235
1778559749.823606,599616063287467940,2044,-210
1778559749.831298,599616063295160247,2044,-184
1778559749.838990,599616063302852554,2044,-189
1778559749.846682,599616063310544861,2044,-179
1778559749.854375,599616063318237168,2044,-150
1778559749.862067,599616063325929475,2044,-123
1778559749.869759,599616063333621782,2044,-87
1778559749.877452,599616063341314089,2044,-53
1778559749.885144,599616063349006396,2044,-41
1778559749.892836,599616063356698703,2044,-14
1778559749.900529,599616063364391010,2044,33
1778559749.908221,599616063372083317,2044,53
1778559749.915913,599616063379775624,2044,53
1778559749.923605,599616063387467931,2044,60
1778559749.931298,599616063395160238,2044,58
1778559749.938990,599616063402852545,2044,9
1778559749.946682,599616063410544852,2044,-77
1778559749.954375,599616063418237159,2044,-172
1778559749.962067,599616063425929466,2044,-269
1778559749.969759,599616063433621773,2044,-354
1778559749.977452,599616063441314080,2044,-407
1778559749.985144,599616063449006387,2044,-441
1778559749.992836,599616063456698694,2044,-472
1778559750.000529,599616063464391001,2044,-485
1778559750.008221,599616063472083308,2044,-468
1778559750.015913,599616063479775615,2044,-448
1778559750.023606,599616063487467922,2044,-475
1778559750.031298,599616063495160229,2044,-502
1778559750.038990,599616063502852536,2044,-472
1778559750.046682,599616063510544843,2044,-441
1778559750.054375,599616063518237150,2044,-458
1778559750.062067,599616063525929457,2044,-460
1778559750.069759,599616063533621764,2044,-424
1778559750.077452,599616063541314071,2044,-419
1778559750.085144,599616063549006378,2044,-438
1778559750.092836,599616063556698685,2044,-419
1778559750.100528,599616063564390992,2044,-388
1778559750.108221,599616063572083299,2044,-390
1778559750.115913,599616063579775606,2044,-397
1778559750.123605,599616063587467913,2044,-385
1778559750.153969,599616063594903778,2117,-378
1778559750.161661,599616063602596085,2117,-385
1778559750.169353,599616063610288392,2117,-380
1778559750.177046,599616063617980699,2117,-366
1778559750.184738,599616063625673006,2117,-358
1778559750.192430,599616063633365313,2117,-354
1778559750.200123,599616063641057620,2117,-358
1778559750.207815,599616063648749927,2117,-383
1778559750.215507,599616063656442234,2117,-373
1778559750.223200,599616063664134541,2117,-351
1778559750.230892,599616063671826848,2117,-368
1778559750.238584,599616063679519155,2117,-388
1778559750.246276,599616063687211462,2117,-371
1778559750.253969,599616063694903769,2117,-366
1778559750.261661,599616063702596076,2117,-373
1778559750.269353,599616063710288383,2117,-380
1778559750.277046,599616063717980690,2117,-373
1778559750.284738,599616063725672997,2117,-356
1778559750.292430,599616063733365304,2117,-363
1778559750.300123,599616063741057611,2117,-361
1778559750.307815,599616063748749918,2117,-312
1778559750.315507,599616063756442225,2117,-276
1778559750.323200,599616063764134532,2117,-286
1778559750.330892,599616063771826839,2117,-300
1778559750.338584,599616063779519146,2117,-310
1778559750.346277,599616063787211453,2117,-334
1778559750.353969,599616063794903760,2117,-349
1778559750.361661,599616063802596067,2117,-361
1778559750.369353,599616063810288374,2117,-392
1778559750.377046,599616063817980681,2117,-385
1778559750.384738,599616063825672988,2117,-339
1778559750.392430,599616063833365295,2117,-322
1778559750.400123,599616063841057602,2117,-337
1778559750.407815,599616063848749909,2117,-303
1778559750.415507,599616063856442216,2117,-206
1778559750.423200,599616063864134523,2117,-104
1778559750.430892,599616063871826830,2117,89
1778559750.438584,599616063879519137,2117,446
1778559750.446276,599616063887211444,2117,361
1778559750.453969,599616063894903751,2117,-594
1778559750.461661,599616063902596058,2117,-1084
1778559750.469353,599616063910288365,2117,-417
1778559750.477046,599616063917980672,2117,-101
1778559750.484738,599616063925672979,2117,-407
1778559750.492430,599616063933365286,2117,-395
1778559750.500123,599616063941057593,2117,-244
1778559750.507815,599616063948749900,2117,-291
1778559750.515507,599616063956442207,2117,-317
1778559750.523200,599616063964134514,2117,-276
1778559750.530892,599616063971826821,2117,-276
1778559750.538584,599616063979519128,2117,-305
1778559750.546277,599616063987211435,2117,-281
1778559750.553969,599616063994903742,2117,-242
1778559750.561661,599616064002596049,2117,-269
1778559750.569353,599616064010288356,2117,-288
1778559750.577046,599616064017980663,2117,-240
1778559750.584738,599616064025672970,2117,-227
1778559750.592430,599616064033365277,2117,-249
1778559750.600123,599616064041057584,2117,-232
1778559750.607815,599616064048749891,2117,-223
1778559750.615507,599616064056442198,2117,-232
1778559750.623199,599616064064134505,2117,-184
1778559750.630892,599616064071826812,2117,-130
1778559750.638584,599616064079519119,2117,-133
1778559750.646276,599616064087211426,2117,-133
1778559750.653969,599616064094903733,2117,-126
1778559750.661661,599616064102596040,2117,-106
1778559750.669353,599616064110288347,2117,-50
1778559750.677046,599616064117980654,2117,-16
1778559750.684738,599616064125672961,2117,0
1778559750.692430,599616064133365268,2117,31
1778559750.700123,599616064141057575,2117,48
1778559750.707815,599616064148749882,2117,63
1778559750.693947,599616064156190838,2190,82
1778559750.701639,599616064163883145,2190,63
1778559750.709332,599616064171575452,2190,12
1778559750.717024,599616064179267759,2190,-46
1778559750.724716,599616064186960066,2190,-133
1778559750.732408,599616064194652373,2190,-232
1778559750.740101,599616064202344680,2190,-303
1778559750.747793,599616064210036987,2190,-346
1778559750.755485,599616064217729294,2190,-417
1778559750.763178,599616064225421601,2190,-511
1778559750.770870,599616064233113908,2190,-514
1778559750.778562,599616064240806215,2190,-458
1778559750.786254,599616064248498522,2190,-482
1778559750.793947,599616064256190829,2190,-511
1778559750.801639,599616064263883136,2190,-472
1778559750.809331,599616064271575443,2190,-443
1778559750.817024,599616064279267750,2190,-443
1778559750.824716,599616064286960057,2190,-431
1778559750.832408,599616064294652364,2190,-412
1778559750.840101,599616064302344671,2190,-404
1778559750.847793,599616064310036978,2190,-404
1778559750.855485,599616064317729285,2190,-397
1778559750.863178,599616064325421592,2190,-375
1778559750.870870,599616064333113899,2190,-366
1778559750.878562,599616064340806206,2190,-368
1778559750.886255,599616064348498513,2190,-378
1778559750.893947,599616064356190820,2190,-378
1778559750.901639,599616064363883127,2190,-358
1778559750.909331,599616064371575434,2190,-351
1778559750.917024,599616064379267741,2190,-363
1778559750.924716,599616064386960048,2190,-354
1778559750.932408,599616064394652355,2190,-329
1778559750.940101,599616064402344662,2190,-337
1778559750.947793,599616064410036969,2190,-351
1778559750.955485,599616064417729276,2190,-344
1778559750.963178,599616064425421583,2190,-332
1778559750.970870,599616064433113890,2190,-334
1778559750.978562,599616064440806197,2190,-337
1778559750.986254,599616064448498504,2190,-334
1778559750.993947,599616064456190811,2190,-329
1778559751.001639,599616064463883118,2190,-322
1778559751.009331,599616064471575425,2190,-317
1778559751.017024,599616064479267732,2190,-329
1778559751.024716,599616064486960039,2190,-356
1778559751.032408,599616064494652346,2190,-363
1778559751.040101,599616064502344653,2190,-344
1778559751.047793,599616064510036960,2190,-317
1778559751.055485,599616064517729267,2190,-298
1778559751.063178,599616064525421574,2190,-298
1778559751.070870,599616064533113881,2190,-307
1778559751.078562,599616064540806188,2190,-307
1778559751.086255,599616064548498495,2190,-322
1778559751.093947,599616064556190802,2190,-351
1778559751.101639,599616064563883109,2190,-346
1778559751.109331,599616064571575416,2190,-329
1778559751.117024,599616064579267723,2190,-334
1778559751.124716,599616064586960030,2190,-346
1778559751.132408,599616064594652337,2190,-351
1778559751.140101,599616064602344644,2190,-341
1778559751.147793,599616064610036951,2190,-317
1778559751.155485,599616064617729258,2190,-274
1778559751.163177,599616064625421565,2190,-184
1778559751.170870,599616064633113872,2190,-43
1778559751.178562,599616064640806179,2190,244
1778559751.186255,599616064648498486,2190,608
1778559751.193947,599616064656190793,2190,225
1778559751.201639,599616064663883100,2190,-902
1778559751.209332,599616064671575407,2190,-1069
1778559751.217024,599616064679267714,2190,-293
1778559751.224716,599616064686960021,2190,-203
1778559751.232408,599616064694652328,2190,-477
1778559751.240101,599616064702344635,2190,-349
1778559751.247793,599616064710036942,2190,-269
1778559751.234978,599616064717477894,2263,-351
1778559751.242670,599616064725170201,2263,-322
1778559751.250362,599616064732862508,2263,-283
1778559751.258054,599616064740554815,2263,-317
1778559751.265747,599616064748247122,2263,-315
1778559751.273439,599616064755939429,2263,-276
1778559751.281132,599616064763631736,2263,-269
1778559751.288824,599616064771324043,2263,-269
1778559751.296516,599616064779016350,2263,-257
1778559751.304209,599616064786708657,2263,-244
1778559751.311901,599616064794400964,2263,-244
1778559751.319593,599616064802093271,2263,-237
1778559751.327285,599616064809785578,2263,-223
1778559751.334978,599616064817477885,2263,-210
1778559751.342670,599616064825170192,2263,-198
1778559751.350362,599616064832862499,2263,-186
1778559751.358055,599616064840554806,2263,-167
1778559751.365747,599616064848247113,2263,-143
1778559751.373439,599616064855939420,2263,-121
1778559751.381132,599616064863631727,2263,-97
1778559751.388824,599616064871324034,2263,-63
1778559751.396516,599616064879016341,2263,-24
1778559751.404208,599616064886708648,2263,12
1778559751.411901,599616064894400955,2263,43
1778559751.419593,599616064902093262,2263,72
1778559751.427285,599616064909785569,2263,92
1778559751.434978,599616064917477876,2263,101
1778559751.442670,599616064925170183,2263,104
1778559751.450362,599616064932862490,2263,67
1778559751.458055,599616064940554797,2263,-12
1778559751.465747,599616064948247104,2263,-101
1778559751.473439,599616064955939411,2263,-194
1778559751.481132,599616064963631718,2263,-295
1778559751.488824,599616064971324025,2263,-385
1778559751.496516,599616064979016332,2263,-443
1778559751.504209,599616064986708639,2263,-472
1778559751.511901,599616064994400946,2263,-489
1778559751.519593,599616065002093253,2263,-504
1778559751.527285,599616065009785560,2263,-509
1778559751.534978,599616065017477867,2263,-504
1778559751.542670,599616065025170174,2263,-499
1778559751.550362,599616065032862481,2263,-489
1778559751.558055,599616065040554788,2263,-472
1778559751.565747,599616065048247095,2263,-465
1778559751.573439,599616065055939402,2263,-463
1778559751.581131,599616065063631709,2263,-451
1778559751.588824,599616065071324016,2263,-431
1778559751.596516,599616065079016323,2263,-424
1778559751.604208,599616065086708630,2263,-429
1778559751.611901,599616065094400937,2263,-424
1778559751.619593,599616065102093244,2263,-407
1778559751.627285,599616065109785551,2263,-400
1778559751.634978,599616065117477858,2263,-390
1778559751.642670,599616065125170165,2263,-361
1778559751.650362,599616065132862472,2263,-346
1778559751.658055,599616065140554779,2263,-363
1778559751.665747,599616065148247086,2263,-368
1778559751.673439,599616065155939393,2263,-351
1778559751.681132,599616065163631700,2263,-341
1778559751.688824,599616065171324007,2263,-344
1778559751.696516,599616065179016314,2263,-346
1778559751.704208,599616065186708621,2263,-351
1778559751.711901,599616065194400928,2263,-351
1778559751.719593,599616065202093235,2263,-344
1778559751.727285,599616065209785542,2263,-346
1778559751.734978,599616065217477849,2263,-356
1778559751.742670,599616065225170156,2263,-351
1778559751.750362,599616065232862463,2263,-346
1778559751.758054,599616065240554770,2263,-356
1778559751.765747,599616065248247077,2263,-366
1778559751.773439,599616065255939384,2263,-371
1778559751.781132,599616065263631691,2263,-356
1778559751.788824,599616065271323998,2263,-322
1778559751.820762,599616065278764950,2336,-295
1778559751.828454,599616065286457257,2336,-305
1778559751.836146,599616065294149564,2336,-312
1778559751.843838,599616065301841871,2336,-303
1778559751.851531,599616065309534178,2336,-303
1778559751.859223,599616065317226485,2336,-324
1778559751.866915,599616065324918792,2336,-349
1778559751.874608,599616065332611099,2336,-358
1778559751.882300,599616065340303406,2336,-356
1778559751.889992,599616065347995713,2336,-349
1778559751.897685,599616065355688020,2336,-334
1778559751.905377,599616065363380327,2336,-327
1778559751.913069,599616065371072634,2336,-324
1778559751.920762,599616065378764941,2336,-288
1778559751.928454,599616065386457248,2336,-210
1778559751.936146,599616065394149555,2336,-89
1778559751.943839,599616065401841862,2336,201
1778559751.951531,599616065409534169,2336,601
1778559751.959223,599616065417226476,2336,281
1778559751.966916,599616065424918783,2336,-856
1778559751.974608,599616065432611090,2336,-1103
1778559751.982300,599616065440303397,2336,-324
1778559751.989992,599616065447995704,2336,-194
1778559751.997685,599616065455688011,2336,-480
1778559752.005377,599616065463380318,2336,-346
1778559752.013069,599616065471072625,2336,-242
1778559752.020762,599616065478764932,2336,-339
1778559752.028454,599616065486457239,2336,-341
1778559752.036146,599616065494149546,2336,-295
1778559752.043839,599616065501841853,2336,-295
1778559752.051531,599616065509534160,2336,-278
1778559752.059223,599616065517226467,2336,-271
1778559752.066916,599616065524918774,2336,-288
1778559752.074608,599616065532611081,2336,-276
1778559752.082300,599616065540303388,2336,-247
1778559752.089993,599616065547995695,2336,-240
1778559752.097685,599616065555688002,2336,-242
1778559752.105377,599616065563380309,2336,-232
1778559752.113069,599616065571072616,2336,-213
1778559752.120762,599616065578764923,2336,-208
1778559752.128454,599616065586457230,2336,-203
1778559752.136146,599616065594149537,2336,-177
1778559752.143839,599616065601841844,2336,-152
1778559752.151531,599616065609534151,2336,-147
1778559752.159223,599616065617226458,2336,-133
1778559752.166915,599616065624918765,2336,-109
1778559752.174608,599616065632611072,2336,-75
1778559752.182300,599616065640303379,2336,-38
1778559752.189992,599616065647995686,2336,-21
1778559752.197685,599616065655687993,2336,-7
1778559752.205377,599616065663380300,2336,29
1778559752.213069,599616065671072607,2336,65
1778559752.220762,599616065678764914,2336,65
1778559752.228454,599616065686457221,2336,38
1778559752.236146,599616065694149528,2336,19
1778559752.243839,599616065701841835,2336,-12
1778559752.251531,599616065709534142,2336,-87
1778559752.259223,599616065717226449,2336,-208
1778559752.266916,599616065724918756,2336,-315
1778559752.274608,599616065732611063,2336,-383
1778559752.282300,599616065740303370,2336,-453
1778559752.289992,599616065747995677,2336,-504
1778559752.297685,599616065755687984,2336,-514
1778559752.305377,599616065763380291,2336,-511
1778559752.313069,599616065771072598,2336,-516
1778559752.320762,599616065778764905,2336,-523
1778559752.328454,599616065786457212,2336,-514
1778559752.336146,599616065794149519,2336,-492
1778559752.343838,599616065801841826,2336,-487
1778559752.351531,599616065809534133,2336,-487
1778559752.359223,599616065817226440,2336,-475
1778559752.366915,599616065824918747,2336,-463
1778559752.374608,599616065832611054,2336,-465
1778559752.359407,599616065840052006,2409,-448
1778559752.367100,599616065847744313,2409,-429
1778559752.374792,599616065855436620,2409,-421
1778559752.382484,599616065863128927,2409,-417
1778559752.390177,599616065870821234,2409,-417
1778559752.397869,599616065878513541,2409,-414
1778559752.405561,599616065886205848,2409,-395
1778559752.413254,599616065893898155,2409,-383
1778559752.420946,599616065901590462,2409,-375
1778559752.428638,599616065909282769,2409,-366
1778559752.436331,599616065916975076,2409,-375
1778559752.444023,599616065924667383,2409,-385
1778559752.451715,599616065932359690,2409,-378
1778559752.459407,599616065940051997,2409,-368
1778559752.467100,599616065947744304,2409,-361
1778559752.474792,599616065955436611,2409,-366
1778559752.482484,599616065963128918,2409,-373
1778559752.490177,599616065970821225,2409,-366
1778559752.497869,599616065978513532,2409,-361
1778559752.505561,599616065986205839,2409,-358
1778559752.513253,599616065993898146,2409,-351
1778559752.520946,599616066001590453,2409,-361
1778559752.528638,599616066009282760,2409,-373
1778559752.536330,599616066016975067,2409,-371
1778559752.544023,599616066024667374,2409,-356
1778559752.551715,599616066032359681,2409,-332
1778559752.559407,599616066040051988,2409,-303
1778559752.567100,599616066047744295,2409,-293
1778559752.574792,599616066055436602,2409,-300
1778559752.582484,599616066063128909,2409,-303
1778559752.590177,599616066070821216,2409,-317
1778559752.597869,599616066078513523,2409,-339
1778559752.605561,599616066086205830,2409,-344
1778559752.613254,599616066093898137,2409,-329
1778559752.620946,599616066101590444,2409,-327
1778559752.628638,599616066109282751,2409,-334
1778559752.636330,599616066116975058,2409,-332
1778559752.644023,599616066124667365,2409,-322
1778559752.651715,599616066132359672,2409,-312
1778559752.659407,599616066140051979,2409,-274
1778559752.667100,599616066147744286,2409,-179
1778559752.674792,599616066155436593,2409,-19
1778559752.682484,599616066163128900,2409,317
1778559752.690177,599616066170821207,2409,698
1778559752.697869,599616066178513514,2409,252
1778559752.705561,599616066186205821,2409,-897
1778559752.713253,599616066193898128,2409,-1008
1778559752.720946,599616066201590435,2409,-259
1778559752.728638,599616066209282742,2409,-210
1778559752.736331,599616066216975049,2409,-451
1778559752.744023,599616066224667356,2409,-310
1778559752.751715,599616066232359663,2409,-254
1778559752.759407,599616066240051970,2409,-354
1778559752.767100,599616066247744277,2409,-322
1778559752.774792,599616066255436584,2409,-269
1778559752.782484,599616066263128891,2409,-291
1778559752.790177,599616066270821198,2409,-288
1778559752.797869,599616066278513505,2409,-259
1778559752.805561,599616066286205812,2409,-259
1778559752.813254,599616066293898119,2409,-264
1778559752.820946,599616066301590426,2409,-247
1778559752.828638,599616066309282733,2409,-227
1778559752.836330,599616066316975040,2409,-227
1778559752.844023,599616066324667347,2409,-227
1778559752.851715,599616066332359654,2409,-213
1778559752.859407,599616066340051961,2409,-206
1778559752.867100,599616066347744268,2409,-201
1778559752.874792,599616066355436575,2409,-184
1778559752.882484,599616066363128882,2409,-157
1778559752.890177,599616066370821189,2409,-140
1778559752.897869,599616066378513496,2409,-123
1778559752.905561,599616066386205803,2409,-101
1778559752.913254,599616066393898110,2409,-77
1778559752.899177,599616066401339062,2482,-48
1778559752.906869,599616066409031369,2482,-9
1778559752.914562,599616066416723676,2482,19
1778559752.922254,599616066424415983,2482,36
1778559752.929946,599616066432108290,2482,67
1778559752.937638,599616066439800597,2482,77
1778559752.945331,599616066447492904,2482,50
1778559752.953023,599616066455185211,2482,21
1778559752.960715,599616066462877518,2482,-19
1778559752.968408,599616066470569825,2482,-89
1778559752.976100,599616066478262132,2482,-174
1778559752.983792,599616066485954439,2482,-266
1778559752.991484,599616066493646746,2482,-354
1778559752.999177,599616066501339053,2482,-412
1778559753.006869,599616066509031360,2482,-443
1778559753.014561,599616066516723667,2482,-468
1778559753.022254,599616066524415974,2482,-480
1778559753.029946,599616066532108281,2482,-475
1778559753.037638,599616066539800588,2482,-475
1778559753.045331,599616066547492895,2482,-475
1778559753.053023,599616066555185202,2482,-463
1778559753.060715,599616066562877509,2482,-446
1778559753.068408,599616066570569816,2482,-436
1778559753.076100,599616066578262123,2482,-434
1778559753.083792,599616066585954430,2482,-429
1778559753.091485,599616066593646737,2482,-417
1778559753.099177,599616066601339044,2482,-412
1778559753.106869,599616066609031351,2482,-409
1778559753.114561,599616066616723658,2482,-402
1778559753.122254,599616066624415965,2482,-388
1778559753.129946,599616066632108272,2482,-375
1778559753.137638,599616066639800579,2482,-371
1778559753.145331,599616066647492886,2482,-361
1778559753.153023,599616066655185193,2482,-344
1778559753.160715,599616066662877500,2482,-337
1778559753.168408,599616066670569807,2482,-346
1778559753.176100,599616066678262114,2482,-346
1778559753.183792,599616066685954421,2482,-344
1778559753.191484,599616066693646728,2482,-349
1778559753.199177,599616066701339035,2482,-344
1778559753.206869,599616066709031342,2482,-339
1778559753.214561,599616066716723649,2482,-337
1778559753.222254,599616066724415956,2482,-332
1778559753.229946,599616066732108263,2482,-332
1778559753.237638,599616066739800570,2482,-329
1778559753.245331,599616066747492877,2482,-322
1778559753.253023,599616066755185184,2482,-339
1778559753.260715,599616066762877491,2482,-366
1778559753.268408,599616066770569798,2482,-358
1778559753.276100,599616066778262105,2482,-344
1778559753.283792,599616066785954412,2482,-327
1778559753.291485,599616066793646719,2482,-298
1778559753.299177,599616066801339026,2482,-286
1778559753.306869,599616066809031333,2482,-295
1778559753.314561,599616066816723640,2482,-295
1778559753.322254,599616066824415947,2482,-295
1778559753.329946,599616066832108254,2482,-317
1778559753.337638,599616066839800561,2482,-337
1778559753.345331,599616066847492868,2482,-332
1778559753.353023,599616066855185175,2482,-312
1778559753.360715,599616066862877482,2482,-317
1778559753.368407,599616066870569789,2482,-337
1778559753.376100,599616066878262096,2482,-339
1778559753.383792,599616066885954403,2482,-317
1778559753.391484,599616066893646710,2482,-288
1778559753.399177,599616066901339017,2482,-237
1778559753.406869,599616066909031324,2482,-145
1778559753.414562,599616066916723631,2482,26
1778559753.422254,599616066924415938,2482,363
1778559753.429946,599616066932108245,2482,492
1778559753.437638,599616066939800552,2482,-305
1778559753.445331,599616066947492859,2482,-1093
1778559753.453023,599616066955185166,2482,-606
1778559753.485790,599616066962626118,2555,-89
1778559753.493482,599616066970318425,2555,-344
1778559753.501175,599616066978010732,2555,-419
1778559753.508867,599616066985703039,2555,-261
1778559753.516559,599616066993395346,2555,-303
1778559753.524251,599616067001087653,2555,-349
1778559753.531944,599616067008779960,2555,-288
1778559753.539636,599616067016472267,2555,-281
1778559753.547328,599616067024164574,2555,-303
1778559753.555021,599616067031856881,2555,-281
1778559753.562713,599616067039549188,2555,-266
1778559753.570405,599616067047241495,2555,-271
1778559753.578098,599616067054933802,2555,-257
1778559753.585790,599616067062626109,2555,-242
1778559753.593482,599616067070318416,2555,-240
1778559753.601175,599616067078010723,2555,-220
1778559753.608867,599616067085703030,2555,-203
1778559753.616559,599616067093395337,2555,-210
1778559753.624252,599616067101087644,2555,-218
1778559753.631944,599616067108779951,2555,-191
1778559753.639636,599616067116472258,2555,-155
1778559753.647328,599616067124164565,2555,-145
1778559753.655021,599616067131856872,2555,-145
1778559753.662713,599616067139549179,2555,-111
1778559753.670405,599616067147241486,2555,-80
1778559753.678098,599616067154933793,2555,-67
1778559753.685790,599616067162626100,2555,-38
1778559753.693482,599616067170318407,2555,4
1778559753.701174,599616067178010714,2555,26
1778559753.708867,599616067185703021,2555,38
1778559753.716559,599616067193395328,2555,55
1778559753.724252,599616067201087635,2555,55
